,att1,att2,att3,att4,att5,att6,att7,att8,att9,att10,att11,att12,att13,att14,att15,att16,att17,att18,att19,att20,att21,att22,att23,att24,att25,att26,att27,att28,att29,att30,att31,att32,att33,att34,att35,att36,att37,att38,att39,att40,att41,att42,att43,att44,att45,att46,att47,att48,att49,att50,att51,att52,att53,att54,att55,att56,att57,att58,att59,att60,att61,att62,att63,att64,att65,att66,att67,att68,att69,att70,att71,att72,att73,att74,att75,att76,att77,att78,att79,att80,att81,att82,att83,att84,att85,att86,att87,att88,att89,att90,att91,att92,att93,att94,att95,att96,att97,att98,att99,att100,att101,att102,att103,att104,att105,att106,att107,att108,att109,att110,att111,att112,att113,att114,att115,att116,att117,att118,att119,att120,att121,att122,att123,att124,att125,att126,att127,att128,att129,att130,att131,att132,att133,att134,att135,att136,att137,att138,att139,att140
988,-0.092921894,-1.5184646,-2.308741,-3.4684036,-3.9311906,-3.296658,-2.0613956,-1.4224113,-1.1381249,-0.2305437,0.1371913,-0.005656036,0.000661076,0.00777552,-0.057927092,-0.06556307,0.035824004,0.000851122,0.093282281,0.079616691,-0.045406815,-0.068669382,-0.036834533,0.08036904,0.17397142,0.16844707,0.078927352,0.24751809,0.2615558,0.089415572,0.095119704,0.047848983,0.16264813,0.27379463,0.15236663,0.22680603,0.32153534,0.24564703,0.28740031,0.2535393,0.31665391,0.32715929,0.25839658,0.41062558,0.52454661,0.56696522,0.53658005,0.59471203,0.65789278,0.58792434,0.53637601,0.5692103,0.63192206,0.46468632,0.47307402,0.56848129,0.50129923,0.52667766,0.47395212,0.45357748,0.38296514,0.39993036,0.47814996,0.51276228,0.50149519,0.67069614,0.76763341,0.5088723,0.528805,0.63940324,0.70069548,0.71685669,0.68917757,0.78514413,0.81122353,0.90720433,0.81643074,0.78422124,0.88991018,0.93423407,0.89679736,0.6946145,0.7206499,0.64671702,0.69625929,0.74030425,0.659576,0.47594486,0.34971335,0.37159888,0.34185645,0.31321417,0.31185691,0.20088364,0.26371725,0.38550851,0.45201808,0.47623716,0.62488015,0.79825072,1.1421441,1.4768448,1.6834038,1.8619652,1.7958292,1.6629628,1.2412285,1.1139624,0.84184857,0.50089508,0.18790844,-0.39675448,-0.7948597,-1.0221283,-1.0669413,-1.0872426,-1.1992777,-1.1968898,-1.1468278,-1.2215717,-1.138946,-0.92645811,-0.93271162,-1.0388055,-0.97290853,-1.0614623,-1.2091852,-1.2672951,-1.1096747,-0.60334738,0.35761537,0.4289727,-0.25415282,-0.83095782,-1.4795922,-1.8374168,-2.2754256,-2.4004342,-1.71086,-1.7137761
1610,-0.086140191,-2.3415141,-3.8171481,-4.2448752,-3.707223,-2.8390301,-1.8765441,-1.6345715,-1.2438668,-0.63172471,-0.49213185,-0.60578151,-0.52636082,-0.44846566,-0.51197729,-0.4342613,-0.44698815,-0.53661842,-0.45272243,-0.47752605,-0.47926718,-0.52820134,-0.53983804,-0.5889917,-0.61391164,-0.56717776,-0.64517975,-0.73379639,-0.72397028,-0.82184537,-0.74634938,-0.79153671,-0.91373039,-0.90010257,-0.91526166,-0.89954872,-0.91699217,-0.82757453,-0.84212473,-0.69650669,-0.6606494,-0.64735037,-0.42091339,-0.40487937,-0.29942826,-0.20668836,-0.22528157,-0.11812813,-0.019602708,-0.020975078,-0.092616202,-0.020683415,0.033242081,0.016456557,0.056278671,0.072528564,0.095655844,0.10014513,0.1141557,0.11221076,0.12406591,0.10434304,-0.006805277,0.11850366,0.19018905,0.1727238,0.24339757,0.35931479,0.29853968,0.42538642,0.50791884,0.4496169,0.41775444,0.45396503,0.47402062,0.50588848,0.43740666,0.5063015,0.54776848,0.48223542,0.43622786,0.44611177,0.43750875,0.39259242,0.37610558,0.21807961,0.25349069,0.34133881,0.37727023,0.40048771,0.3548839,0.34374663,0.35109643,0.35461544,0.29438227,0.39479444,0.5907226,0.6425748,0.96001777,0.9638167,1.1558015,1.525005,1.7147742,1.9521511,1.8711993,1.8300712,1.7154066,1.4660017,1.2640667,0.98739773,0.62317836,0.33758575,0.06112089,-0.13424268,-0.079715665,-0.092279763,-0.076552225,-0.12359512,-0.10068175,-0.2193489,-0.21921636,-0.17358737,-0.14711137,-0.067133595,-0.21359734,-0.09841935,-0.12643936,0.010998208,0.32749397,0.95420628,1.2681265,1.2437982,1.7004322,1.9741027,1.7251656,1.2955327,1.3994756,1.6942425,1.2791133,-0.66302513
4083,1.2058062,-0.085064458,-1.8997083,-3.2179461,-4.0985883,-4.0188911,-2.8214546,-1.9853713,-1.633507,-0.73292101,-0.20011702,-0.28925444,-0.25063988,-0.26221205,-0.32113089,-0.2370161,-0.33244225,-0.29813022,-0.26149741,-0.2823794,-0.37372132,-0.54603743,-0.4965999,-0.43387499,-0.50867466,-0.51195367,-0.61128867,-0.52270145,-0.77575347,-0.79073199,-0.8857519,-0.92672581,-0.92280353,-1.0833612,-1.1689136,-1.2140834,-1.3010176,-1.2207039,-1.2117135,-1.126951,-1.2465653,-1.0456747,-0.97948802,-0.78513074,-0.66740773,-0.51683052,-0.41603656,-0.43019498,0.018286821,-0.16919913,-0.055875844,-0.1147198,-0.033100519,0.03395934,-0.035081807,-0.03276391,-6.16e-05,0.12991117,0.11694361,0.18909197,0.15995533,0.23134262,0.16640146,0.21087438,0.31146472,0.49184714,0.46890886,0.48627041,0.61671562,0.60637517,0.72881667,0.76449755,0.74791359,0.66939064,0.73484503,0.69625369,0.70561987,0.605044,0.84044706,0.70521955,0.62584358,0.7030657,0.47567556,0.53390169,0.43703751,0.44274208,0.46907961,0.53446452,0.33154154,0.41338373,0.42842524,0.32060561,0.33205325,0.27222333,0.37778685,0.40946905,0.22115991,0.23441193,0.23905188,0.3489912,0.40821869,0.70595417,1.0395644,1.121404,1.2114949,1.4926805,1.8161682,2.1014132,2.0464649,2.0266119,1.7580187,1.6035215,1.3304005,1.1275301,0.65733624,0.15380395,-0.24444464,-0.41156113,-0.35057351,-0.33064433,-0.33515945,-0.348782,-0.21915176,-0.32040211,-0.20201589,-0.23869062,-0.28544312,-0.24636552,-0.13317748,-0.21242049,0.060045506,0.83242055,1.406726,1.1674732,1.2762455,1.3340187,1.2166882,0.5592314,0.10851654,0.91353055
437,0.074273575,-1.5392232,-3.204752,-4.0181648,-4.0128174,-3.754755,-3.3462869,-2.3172098,-1.5925311,-1.3911963,-0.892685,-0.43251721,-0.34547724,-0.39204132,-0.34986055,-0.22484152,-0.32377797,-0.36492412,-0.31386444,-0.33398717,-0.27739512,-0.29572407,-0.33902031,-0.29626613,-0.36297935,-0.43804095,-0.45018777,-0.41743085,-0.48012515,-0.538447,-0.5698651,-0.63300054,-0.58264289,-0.61151034,-0.66323739,-0.59618413,-0.56062074,-0.5581505,-0.52943997,-0.48757497,-0.49772303,-0.44553362,-0.36839496,-0.26609948,-0.18455344,-0.13324754,-0.13639082,-0.052262626,0.030048923,0.092531571,0.091748493,0.051480207,0.076392212,0.065572897,0.060099139,0.049263679,0.055553929,0.11332472,0.092607324,0.061557627,0.002463266,0.003205272,0.17546203,0.14401902,0.15931217,0.25313486,0.13352399,0.2689712,0.24436111,0.25134982,0.37589426,0.36769251,0.36875843,0.39135515,0.49214311,0.58974635,0.54500257,0.53352803,0.58662004,0.58026884,0.4367553,0.53041916,0.52980813,0.51994827,0.41595188,0.47911547,0.53284092,0.38602233,0.45141221,0.43088309,0.32774179,0.41801881,0.44682234,0.54184014,0.76432159,0.72808708,0.80098737,0.98912947,1.286539,1.6745613,1.9788238,2.0243621,2.1418791,1.8927559,1.6820251,1.5715259,1.361021,0.9222284,0.58316052,0.16507906,0.00080498,-0.14736682,-0.2817126,-0.25550076,-0.29058647,-0.30012934,-0.30586841,-0.28218668,-0.18943434,-0.25228272,-0.20432459,-0.198865,-0.22455926,-0.26419209,-0.21318626,-0.1790169,-0.062255983,0.12022058,0.54904318,0.89009118,1.0228448,1.22307,1.3563442,1.3343628,1.0313021,0.76427009,0.88109601,1.2333191,0.79562119,-1.0232929
4779,-0.86243396,-3.1134784,-3.6232048,-4.043059,-3.8009201,-2.9260296,-1.6336417,-1.4469979,-1.1162556,-0.38280069,-0.32290612,-0.25748467,-0.25288197,-0.31404656,-0.298467,-0.27114549,-0.30173605,-0.3216583,-0.23821531,-0.31106381,-0.48768308,-0.45290374,-0.42958768,-0.48603045,-0.57523539,-0.53471977,-0.7119071,-0.82602772,-0.83683045,-0.76144892,-0.76553227,-0.75237687,-0.78846675,-0.86197224,-0.97884142,-0.94519224,-0.8674695,-0.85316205,-0.85889024,-0.78644382,-0.84579464,-0.70039088,-0.50196345,-0.45840383,-0.36989104,-0.41209824,-0.35075262,-0.20793989,-0.30086736,-0.16848451,-0.081382533,-0.10915571,0.020725223,-0.032894327,-0.05769029,-0.010830481,-0.009519643,0.040600998,-0.002744487,0.028513333,0.06653188,0.088522372,0.13707835,0.18690314,0.081125877,0.12817254,0.29549552,0.29767811,0.33569019,0.36839173,0.43285792,0.52848573,0.37443155,0.48340619,0.54862436,0.47953997,0.51394984,0.39190991,0.47166101,0.56450277,0.50051553,0.50838046,0.47314485,0.43764974,0.33570438,0.42044928,0.47687109,0.35805636,0.38531636,0.41675646,0.36985722,0.34725904,0.35878862,0.39216468,0.2907081,0.34922845,0.41154512,0.52918138,0.72637622,0.90001052,1.0203076,1.1193925,1.3327741,1.5778656,1.9307444,1.9102714,1.8467367,1.8066279,1.4881027,1.4633834,1.1694353,0.73782228,0.53480839,0.046388708,-0.13990918,-0.19799571,-0.23651692,-0.20070131,-0.18599821,-0.14161319,-0.29880307,-0.2454246,-0.2024408,-0.15084419,-0.095671336,-0.18216127,-0.11357217,-0.10790035,-0.05878124,0.089192932,0.39553556,0.94193709,1.0920214,1.1783825,1.5817807,1.7244864,1.6233155,1.3417024,1.7261276,2.0463811
3803,0.56564886,-0.77062441,-1.8845819,-3.4296299,-4.3816686,-4.2175252,-3.0863318,-1.8282856,-1.6855391,-1.2292046,-0.50453926,-0.33156724,-0.37822552,-0.41254074,-0.39250157,-0.3562022,-0.390931,-0.40278762,-0.4363069,-0.42984683,-0.5387639,-0.48587313,-0.54384019,-0.4148036,-0.52454156,-0.46187731,-0.54149729,-0.60957022,-0.63267636,-0.58906106,-0.66703246,-0.7746963,-0.73387374,-0.73387189,-0.79188513,-0.87987893,-0.79625287,-0.68109687,-0.74687214,-0.79147646,-0.64027228,-0.68881249,-0.55500552,-0.44693334,-0.38922419,-0.26192669,-0.20850349,-0.12177407,-0.064727404,0.025676348,0.042025066,0.066615432,0.053386164,0.16899035,0.049042125,0.13144278,0.072572486,0.11648418,0.18280438,0.080949899,0.19242293,0.23425933,0.34165649,0.18895764,0.1857828,0.33341724,0.43913091,0.44591835,0.45416407,0.57059287,0.47535697,0.54853996,0.57462646,0.754215,0.7186891,0.77704961,0.67381723,0.55653024,0.63134731,0.65326971,0.54125481,0.69254897,0.63982059,0.62955073,0.6738364,0.49545032,0.54684573,0.48810607,0.5231096,0.48585376,0.42870045,0.50161883,0.42773222,0.46478768,0.49780576,0.49670409,0.62516584,0.81274589,1.0486758,1.27217,1.4269961,1.6270569,1.9433514,2.2053203,2.1739943,2.1676041,1.9797218,1.7577152,1.536939,1.2543964,0.9313215,0.51884872,0.13896934,-0.2023889,-0.25742576,-0.34467444,-0.29352176,-0.35110539,-0.37906875,-0.45091767,-0.36352206,-0.39640256,-0.38753254,-0.41018265,-0.43290211,-0.37475596,-0.40676445,-0.36250573,-0.1568347,0.23534574,1.0253445,1.3134869,0.96992525,0.60586722,0.14438602,-0.31749354,-0.27810358,0.18193546,1.1238619,0.17130959
1757,-0.074986621,-2.7816929,-4.0943835,-4.4180317,-4.0480125,-2.9932085,-1.8800108,-1.6265366,-1.0989286,-0.27786393,-0.28653471,-0.31798068,-0.241485,-0.2497686,-0.3065517,-0.33237251,-0.27936356,-0.2915878,-0.28773295,-0.29764367,-0.32384521,-0.36702074,-0.43992646,-0.45152309,-0.41473855,-0.50515955,-0.61426237,-0.47569371,-0.56211833,-0.7239936,-0.75185285,-0.74984279,-0.93192379,-0.90310859,-0.88188325,-0.94085338,-0.91889291,-0.932497,-0.9124345,-0.868774,-0.80144817,-0.89253091,-0.75348593,-0.49828202,-0.55007775,-0.41477931,-0.28307784,-0.22359622,-0.25364766,-0.10744805,-0.013869904,-0.063068756,-0.061275389,0.033158237,-0.032462923,-0.054352362,0.087628074,0.12984661,0.16260926,0.1806252,0.22660384,0.17858974,0.25590868,0.28308683,0.31503643,0.35723951,0.36698587,0.42536568,0.40968758,0.47572364,0.49679044,0.47166363,0.63001654,0.66049123,0.65691136,0.63897621,0.68073366,0.60808621,0.62050806,0.56843762,0.62846144,0.57344032,0.59110689,0.51593564,0.47988112,0.46087926,0.43980984,0.37014733,0.38692993,0.3804802,0.42867208,0.43062077,0.33349339,0.42977693,0.46171151,0.38273275,0.44772094,0.46648677,0.55637663,0.83095919,1.1302041,1.3459359,1.4525151,1.5711386,1.7814522,1.7256634,1.6322145,1.752033,1.5209037,1.347556,1.1003582,0.7957424,0.45313112,0.13610086,-0.047538043,-0.26141889,-0.17722498,-0.21427719,-0.19788415,-0.18918396,-0.21094821,-0.15627649,-0.26714255,-0.11685684,-0.11371333,-0.19773595,-0.19971611,-0.20539089,0.019486437,0.065196999,0.56327916,1.2105659,1.4238393,1.5391165,1.5948332,1.2046227,0.79660137,0.28878381,0.95021456,0.49591025
3833,0.97758305,-1.7125685,-3.1665085,-4.1795214,-3.9221757,-3.4794908,-2.0865043,-0.7667871,-0.56998387,0.023495186,0.67760283,0.86190881,0.85976613,0.77624445,0.75953024,0.76026975,0.77008105,0.80341576,0.61338401,0.65749888,0.75669448,0.67628117,0.60525641,0.50124391,0.46612644,0.43474303,0.3979581,0.39395681,0.3483043,0.26007652,0.17031392,0.046188238,-0.077420755,-0.119747,-0.15440982,-0.026696562,-0.16870769,-0.29712256,-0.095279056,-0.17833716,-0.076098324,-0.053700291,-0.034958651,-0.006224626,0.11875319,0.21159191,0.23481492,0.244554,0.35790244,0.4177894,0.37633975,0.32080205,0.39874821,0.29679733,0.34278374,0.23960004,0.31031116,0.25890393,0.30403026,0.3974915,0.21934006,0.16361966,0.17151563,0.2473182,0.23517077,0.29097854,0.32163049,0.32709324,0.35275126,0.4245619,0.45505781,0.40498466,0.48614224,0.51229691,0.51108102,0.64408606,0.63624561,0.5662951,0.49865301,0.44742128,0.48884813,0.4964805,0.42652994,0.37330107,0.23666926,0.25791337,0.28530802,0.39271658,0.26274619,0.27987209,0.24524377,0.17775506,0.26124434,0.41321528,0.61249523,0.75490734,0.7821527,0.97296428,1.1631026,1.4665702,1.7064534,1.7075838,1.4890164,1.3800938,1.3782308,1.0527186,0.85143915,0.46424731,0.18067138,-0.25222872,-0.76600248,-0.93898283,-1.0258292,-1.1431785,-1.1670526,-1.117761,-1.1691042,-1.2425404,-1.3013531,-1.2608294,-1.2111956,-1.2947217,-1.3234826,-1.1952979,-1.3547441,-1.2701921,-1.2020153,-0.82358408,-0.28064267,0.047109828,-0.037225371,0.10666468,0.20849335,0.12938392,0.076765481,-0.15785225,0.017825092,-0.062288807,-0.99951525,-3.722251
4439,-0.28660609,-1.9012302,-2.8240217,-3.6603149,-4.2712661,-3.8487136,-2.718487,-1.8107064,-1.6249166,-1.0031462,-0.48911498,-0.54722601,-0.53163204,-0.63816185,-0.54119886,-0.38076446,-0.46706941,-0.39836457,-0.49445531,-0.48164127,-0.47034771,-0.54798472,-0.50927722,-0.51953137,-0.41445891,-0.49661112,-0.52344307,-0.6125959,-0.51915734,-0.39474288,-0.46150056,-0.51487519,-0.41444529,-0.3838143,-0.27506596,-0.46140626,-0.43351725,-0.43113459,-0.46320578,-0.48843145,-0.42875872,-0.36952607,-0.28542073,-0.29851174,-0.32322875,-0.19817486,-0.066275893,-5.59e-05,0.10033117,0.021123481,-0.02141084,0.044402212,0.21344627,0.21920406,0.016414869,0.088693377,0.073220384,0.097349331,0.17263471,0.18053729,0.083533377,0.13773429,0.32774726,0.1477802,0.15877287,0.30839987,0.35596182,0.46830072,0.43637081,0.55055377,0.51069776,0.51483349,0.53412983,0.66497538,0.6039488,0.66175831,0.7469038,0.72972629,0.75665278,0.73472583,0.62336571,0.54576632,0.63504339,0.64079871,0.73148524,0.68529888,0.62013676,0.64787748,0.57238509,0.48708355,0.50707956,0.40804498,0.42983566,0.48307158,0.3311836,0.51174921,0.65892115,0.67573649,0.79489789,1.0219794,1.1070714,1.2285648,1.5832492,1.9792848,2.2974449,2.1208974,2.1410257,1.9376901,1.5860295,1.5383493,1.141806,0.73705835,0.39039273,0.14056983,-0.045887309,-0.091015503,-0.098940233,-0.19931638,-0.26658769,-0.39579115,-0.1552856,-0.17245706,-0.16644187,-0.078417068,-0.063445213,-0.13147674,-0.1156741,-0.039797246,-0.032485325,0.26111831,1.1990348,1.7072331,1.1293665,0.4093687,-0.46353327,-1.1251742,-1.3401673,-1.2880456,-0.29334517,-0.49892843
4338,2.5764767,-0.14734247,-2.5652059,-3.6480437,-4.7579753,-4.1567875,-2.2104007,-1.2829229,-0.95849915,0.5272066,1.1318928,1.0159453,1.0734577,1.1283614,1.0599073,0.96688251,1.0850698,0.85138714,0.75184553,0.72750109,0.82618625,0.72463986,0.65720187,0.56580779,0.38594059,0.30844102,0.28953758,0.094045918,0.085267792,-0.019591671,-0.089978948,-0.091918402,-0.11183308,-0.28987043,-0.46038664,-0.38181011,-0.45149873,-0.38575106,-0.46241668,-0.39522087,-0.33139573,-0.29827779,-0.24998015,-0.20204086,0.027844989,0.10797275,0.28399987,0.26999283,0.33821286,0.2513565,0.35347526,0.48246825,0.46130471,0.47759542,0.42184483,0.4862601,0.37750356,0.52980737,0.4112001,0.48989944,0.41151068,0.40643849,0.47641369,0.39180721,0.42945131,0.60989406,0.41500665,0.49247328,0.54424023,0.70215647,0.83751626,0.80871414,0.81815522,0.7431803,0.83435717,0.75993814,0.75206783,0.70176519,0.84962953,0.77102244,0.7129724,0.66990985,0.62455027,0.30809703,0.44401303,0.41671373,0.25464689,0.34871612,0.32436018,0.228751,0.14334941,0.04115269,-0.065156538,-0.19786355,-0.18437435,-0.20731204,-0.25234088,-0.17572767,-0.29975843,-0.22250956,-0.35005675,-0.37485292,-0.32052758,-0.25954102,-0.087045706,0.34637531,0.83993391,0.98022777,0.70606132,0.58328379,0.37660056,0.095424627,0.026419219,0.30301277,-0.13813911,-0.40596945,-1.0126376,-1.2691302,-1.3319241,-1.3145334,-1.3140919,-1.3481295,-1.4700413,-1.3180001,-1.2154448,-1.307951,-1.4154188,-1.3900236,-1.3067986,-1.0747334,-0.61778832,0.81237951,1.276768,0.99480025,1.3404086,0.897232,0.25936896,-1.3818929,-1.0059534,-1.1301917
3711,0.65232382,-0.94128422,-2.6055404,-4.0506031,-4.1369669,-3.6293796,-2.4891883,-1.7495671,-1.7285263,-0.92779247,-0.35708354,-0.33151965,-0.35243754,-0.35562516,-0.33760973,-0.44523859,-0.27049031,-0.34728447,-0.35347845,-0.35649164,-0.44976247,-0.49010275,-0.52140287,-0.50723556,-0.538187,-0.66720901,-0.6659171,-0.7365383,-0.87627751,-0.7469885,-0.94047495,-0.94683612,-1.0677286,-1.0316585,-1.1226855,-1.0622833,-1.0360136,-1.0504888,-1.0492609,-1.0341102,-0.82829751,-0.72871218,-0.68280271,-0.54524517,-0.4290872,-0.33530647,-0.3020338,-0.19416657,-0.071470223,-0.11390288,-0.1425766,-0.025118797,-0.026120883,-0.11716253,-0.060752198,-0.013674973,-0.023359602,0.14865727,0.076361767,0.13346388,0.14968763,0.20596757,0.14521866,0.12817237,0.22790082,0.045786237,0.25820215,0.39785615,0.46834921,0.4858961,0.47225742,0.5428559,0.54456321,0.5669604,0.53593023,0.5771048,0.54547089,0.59252212,0.52202615,0.41154417,0.482895,0.54889503,0.48446491,0.40285208,0.42609207,0.48086288,0.39954858,0.40990723,0.43017404,0.41497903,0.35978842,0.45199956,0.37162259,0.2850454,0.38232098,0.56153983,0.64605159,0.78784097,0.94315717,1.1962202,1.2767347,1.4212301,1.8583343,2.0590539,1.9391555,1.7925453,1.7415321,1.6525341,1.3848064,1.2119321,0.92465519,0.56031715,0.26655221,-0.040811803,-0.15638677,-0.061347365,-0.009973789,-0.17003993,-0.14367444,-0.13534451,-0.15447208,-0.20494266,-0.19668638,-0.23410763,-0.24468399,-0.22692269,-0.17416987,-0.11521486,0.10844148,0.53756097,1.0196017,0.99498121,1.0392374,1.2762736,1.2105621,1.0900611,0.90560856,1.26245,1.6696327,0.71070777
2417,-0.97934702,-2.4961347,-3.6505502,-4.1789633,-4.1199467,-3.6899204,-2.4607495,-1.6530243,-1.5371871,-0.98521011,-0.56262114,-0.51164311,-0.5952097,-0.42119423,-0.42003015,-0.41547621,-0.46340136,-0.46196491,-0.38397448,-0.43831143,-0.44276508,-0.45446194,-0.46803324,-0.42982242,-0.4874933,-0.44347593,-0.46205448,-0.51674982,-0.49697211,-0.57850793,-0.61093847,-0.65750888,-0.76419948,-0.7226619,-0.75616344,-0.74171728,-0.67706945,-0.61369465,-0.54291105,-0.52680332,-0.44275335,-0.40537081,-0.3438709,-0.20388636,-0.1139799,0.024075687,0.20688988,0.23394938,0.256219,0.15880628,0.22067435,0.26846179,0.26890717,0.31361422,0.29109529,0.34546872,0.31597301,0.40467696,0.44987011,0.46407493,0.40246431,0.44373413,0.43443198,0.44403249,0.49277446,0.56045418,0.63725227,0.57040422,0.65809996,0.66935844,0.58935128,0.73297289,0.69376845,0.69142355,0.72071819,0.71224735,0.74143052,0.65066821,0.74232179,0.7825055,0.7026344,0.74265432,0.688748,0.62071039,0.65217771,0.61101704,0.57269719,0.57036217,0.4879491,0.55200816,0.54756882,0.54627933,0.60099619,0.59971115,0.81584756,0.90179114,0.97539415,1.0955184,1.3133708,1.4079756,1.561161,1.6866986,1.7277279,1.7154454,1.565261,1.4428105,1.2754593,0.97516501,0.80312004,0.53920637,0.15287938,-0.11017621,-0.13265392,-0.17385807,-0.10575207,-0.25813687,-0.30340867,-0.26971693,-0.29851491,-0.35015244,-0.43386971,-0.28547549,-0.37447995,-0.42398375,-0.38428214,-0.32032907,-0.29074881,-0.12156017,0.25936371,0.71871544,0.60171065,0.62742018,0.7438614,0.58254317,0.47646283,0.17600683,0.3299574,0.42651104,-0.17120349,-1.8490415
1333,-1.4223846,-2.8415194,-4.149325,-4.9337094,-4.3173213,-3.0256211,-1.8844789,-1.6125673,-0.84184181,-0.23041988,-0.33149422,-0.23961276,-0.28288776,-0.18661038,-0.071868606,-0.161118,-0.24063019,-0.26833233,-0.21865955,-0.26663677,-0.36505702,-0.30234523,-0.34335546,-0.3758377,-0.48577675,-0.53317537,-0.48950249,-0.62117489,-0.64224737,-0.64560218,-0.65602016,-0.73865465,-0.85056963,-0.81103776,-0.75224564,-0.8029668,-0.81746233,-0.76843684,-0.68628372,-0.6170838,-0.64369716,-0.52784344,-0.3596852,-0.26534656,-0.24092306,-0.096312045,-0.080662424,0.004451109,-0.002529634,0.021933851,0.10060253,0.10234822,0.001664354,0.053167909,0.036580887,0.10685568,0.084386479,0.084283745,0.0988407,0.10069081,0.13186581,0.13890798,0.12353913,0.22358191,0.18402746,0.30610753,0.3852039,0.34157369,0.53045541,0.57715978,0.61004749,0.57066103,0.57892097,0.67610561,0.6394441,0.74495934,0.71633146,0.663227,0.63763002,0.67380433,0.64182139,0.58269118,0.60124754,0.57821601,0.50916131,0.5066484,0.45927094,0.44274754,0.46697023,0.4251001,0.41395363,0.41051709,0.44792059,0.38563102,0.33235977,0.41791345,0.48923803,0.68047207,0.92251534,0.95974075,1.1577112,1.212881,1.495792,1.6013276,1.6512734,1.5343109,1.407028,1.2035915,1.0201157,0.87120923,0.73810917,0.45913248,0.24539783,-0.027535205,-0.14775742,-0.21838833,-0.2166203,-0.16506371,-0.34539415,-0.28534922,-0.26083735,-0.21052164,-0.19678409,-0.28725602,-0.31760105,-0.28375688,-0.25329035,-0.20794784,-0.12766818,0.24152509,0.77134237,1.0032833,1.0879189,1.3847084,1.6028775,1.4885363,1.1316669,0.59878527,0.70375461,0.064871114
3018,-1.1492478,-1.7957682,-2.4190232,-3.0521047,-3.5873567,-4.0257426,-3.6208057,-2.9458988,-1.9115537,-1.3895031,-1.0531837,-0.37295308,-0.30061135,-0.23683836,-0.26913088,-0.19434134,-0.18738529,-0.39811844,-0.14897599,-0.2990155,-0.31003043,-0.07320989,-0.12238659,-0.22468576,-0.29479378,-0.12547159,-0.14235609,-0.30313511,-0.41316767,-0.20269293,-0.080527014,-0.065873184,-0.10923024,-0.31085227,-0.13928956,-0.22222095,-0.11191599,-0.10970781,-0.11410088,-0.19988229,-0.14880649,0.04641599,-0.068685338,0.11525849,0.20710926,0.2166756,0.22614141,0.20746083,0.047984956,0.075349818,0.231959,0.16503723,0.27446274,0.23619505,0.08409309,-0.070733264,0.16151412,0.20279459,0.045291356,0.019614376,-0.047958425,0.14232205,0.24469932,-0.038948866,-0.28413083,0.080542547,0.19694807,-0.00659189,0.018907375,0.10339661,0.16927147,0.14937149,0.28749318,0.2798426,0.19336898,0.26381914,0.3911304,0.45904859,0.32917068,0.32226426,0.52587758,0.57730564,0.46459023,0.4470983,0.48224658,0.52297626,0.505886,0.41737146,0.40906129,0.3926003,0.50410545,0.40281232,0.41959513,0.57692696,0.73859978,0.72055644,0.87226895,0.93121038,0.95694435,1.2256862,1.4968095,1.7935425,1.8642908,1.7895733,1.6992091,1.6950485,1.5677066,1.3742252,1.0581024,0.83116314,0.62474545,0.26004793,0.045557706,-0.06376934,-0.15825981,-0.30747837,-0.42887096,-0.30194547,-0.046238803,0.037920457,-0.15676275,-0.04877871,-0.1659559,-0.3019118,-0.18960777,-0.23060409,-0.1343002,0.025520765,0.47745007,1.2752076,1.8373905,1.8928268,1.771121,1.3291648,0.43110257,-0.84046099,-1.6759767,-1.7280304,-1.2043668,-1.7841386
901,0.88964243,0.65460368,-1.3378382,-2.9844325,-4.1947349,-4.934481,-4.0097585,-2.3937853,-1.8768937,-1.4360246,-0.3552586,-0.14892987,-0.348372,-0.2639688,-0.13390592,-0.037932722,-0.14774823,-0.050522676,0.013173336,-0.20621393,-0.14816919,-0.30967634,-0.39297553,-0.4065051,-0.44548417,-0.44121973,-0.48186273,-0.61424621,-0.64109295,-0.73414037,-0.84988759,-0.82394622,-0.88541792,-0.96027541,-0.92878275,-0.9944781,-1.0899338,-1.0492362,-1.006708,-0.939449,-0.7998731,-0.91984665,-0.76624364,-0.74663049,-0.48778588,-0.39186976,-0.25840728,-0.24768776,-0.19880409,-0.20776958,-0.040559687,-0.001923821,-0.083247822,-0.055742601,0.14527411,0.012145095,0.13916512,0.14292201,0.14398551,0.07400451,0.081942383,0.13541878,0.15156136,0.27603717,0.18874624,0.26105363,0.28690488,0.36089764,0.38775305,0.43479886,0.41049022,0.57321312,0.63478497,0.59163933,0.72428475,0.52665046,0.66375053,0.60435261,0.7042059,0.62570096,0.60985242,0.5077885,0.56687363,0.41027615,0.57587171,0.50288898,0.51650822,0.36462955,0.48025378,0.43620765,0.30651413,0.30138692,0.3879876,0.34307527,0.22861497,0.25919963,0.15696444,0.32653346,0.21034692,0.19789146,0.32857154,0.36028609,0.2919619,0.379978,0.62269558,0.95243682,1.1577929,1.4127001,1.730638,1.6365262,1.3817501,0.96856318,0.82853843,0.73689798,1.138145,0.77917545,0.40214199,-0.059860871,-0.17789925,-0.17029839,-0.31153165,-0.1099565,-0.17329103,-0.13367362,-0.13266105,0.020464874,-0.071579213,-0.029308476,-0.084097933,-0.04373962,0.10362896,0.87316305,1.5241461,1.5328316,1.8839447,1.6797184,1.7335465,0.6995492,0.78823147,1.2317863
528,1.6790171,0.67410618,-1.5175518,-3.0845442,-4.2604087,-4.6875683,-3.6858012,-2.3380227,-2.0338892,-1.2294286,-0.22609146,-0.22970756,-0.17069941,-0.17042952,-0.24667318,-0.29252272,-0.20621709,-0.37222342,-0.32260181,-0.38100877,-0.39213588,-0.3950268,-0.45657482,-0.55828039,-0.62433138,-0.5511486,-0.50438865,-0.55241839,-0.81362069,-0.75736692,-0.84840854,-0.88798304,-0.88955868,-1.0048426,-1.0722204,-0.99425433,-0.97461012,-0.98030905,-1.05914,-1.0404336,-0.93930809,-0.92800104,-0.86933798,-0.67255989,-0.71481648,-0.67358144,-0.40079078,-0.22033597,-0.19433913,-0.15110446,-0.043950752,-0.020195363,0.049094479,0.13463653,0.11558557,0.15431813,0.17422098,0.15091813,0.12853779,0.20423644,0.2837755,0.21232515,0.27684625,0.26058921,0.2850096,0.30861954,0.39216732,0.56063043,0.60804882,0.54397676,0.6217536,0.64246523,0.56273739,0.74261973,0.81053504,0.7885223,0.85109308,0.81508809,0.85316335,0.72366269,0.74790434,0.68001176,0.71963131,0.62941318,0.56478232,0.66847989,0.38916122,0.51252452,0.50346067,0.48583147,0.54074484,0.47891362,0.45362058,0.3993357,0.3168926,0.38773536,0.51804852,0.40682204,0.40740034,0.45858617,0.43211128,0.46090072,0.40367833,0.36672137,0.31469597,0.22617621,0.69677796,1.3063012,1.5134668,1.4815743,1.2807111,1.1777889,0.98689602,1.0413881,1.0977614,0.67656491,0.32025917,-0.17262933,-0.18904266,-0.12198833,-0.094831897,-0.25457927,-0.18352125,-0.21724713,-0.21431882,-0.24335113,-0.13555421,-0.21216431,-0.19245747,-0.16250483,-0.042929166,0.27645172,0.8767699,0.96481359,1.3626409,1.6445264,1.4927494,1.1297872,1.0701288,1.5986415
594,-0.99371483,-2.9610403,-3.619259,-4.5751663,-4.8466631,-3.9183286,-2.2578955,-1.4258963,-1.3669273,-0.81695034,-0.40461221,-0.49261652,-0.43560749,-0.33036798,-0.21557308,-0.012230889,0.042480643,-0.05620371,-0.20687659,-0.005294756,0.15392466,-0.098123036,-0.10559566,-0.017530424,-0.075333255,-0.15169653,-0.012204963,-0.052481384,-0.040477366,-0.087140516,-0.050137357,-0.071165421,-0.12316026,-0.15775743,-0.030927239,-0.030730834,-0.062134069,0.07809861,0.019812793,-0.062154037,-0.15731165,0.038079597,0.20883917,0.009496654,-0.070139893,0.11717943,0.19079397,0.2023594,0.10320959,0.20420517,0.32955349,0.28982099,0.30761712,0.34893159,0.11894928,0.086697947,0.035645784,-0.2095663,0.039226809,0.31166933,0.35252277,0.19744131,0.12835266,0.20191664,0.14336029,0.32935563,0.5052096,0.3845616,0.34440451,0.41385324,0.43373515,0.37708266,0.29537854,0.30206075,0.50207339,0.58503984,0.54519011,0.47421957,0.40771055,0.45341602,0.5463326,0.42874327,0.50820834,0.48087517,0.44037085,0.59564651,0.28898667,0.27812042,0.26641002,0.46609409,0.41713138,0.22082671,0.1511406,0.19723808,0.24509812,0.26722481,0.69004498,0.90103817,1.0797417,1.1816445,1.7477411,1.9138083,1.9890636,1.9481259,1.80426,1.6093296,1.4017696,1.1941041,0.91627789,0.47877121,0.14568274,-0.10394571,-0.37589858,-0.44304763,-0.50756051,-0.49372898,-0.5030778,-0.5499148,-0.50668157,-0.27958925,-0.23810692,-0.33191397,-0.42223354,-0.36568386,-0.28308273,-0.47410975,-0.41522167,-0.1508333,0.37437214,0.99788155,0.96393575,0.73475761,0.81098344,0.41993925,0.29563244,-0.15713496,-0.2707764,-0.20295528,-0.21667769,-2.1116627
104,-1.4159682,-2.3388206,-2.9895719,-3.6869487,-4.2267281,-4.505561,-3.7259561,-2.4964769,-1.528962,-1.3363575,-0.6447596,-0.20710397,-0.079550768,-0.091843114,-0.21784812,-0.12387619,-0.16721886,-0.15616881,-0.15818284,-0.13395881,-0.11515025,-0.12418785,-0.21775686,-0.25076173,-0.18147463,-0.20288467,-0.20126525,-0.24295379,-0.23300427,-0.24321099,-0.18917509,-0.25999211,-0.20550161,-0.20168877,-0.19283924,-0.2245079,-0.17592595,-0.11096445,-0.1783474,-0.076990675,-0.069717617,0.01620627,0.012375892,-0.011392984,0.13733906,0.14720651,0.26270819,0.16543496,0.18390481,0.17595549,0.12381741,0.20634204,0.099954884,0.093924537,0.10053011,0.1806584,0.15295442,0.062561618,0.10241609,0.12381637,0.065754212,0.10598693,0.10849915,0.13766173,0.13554014,0.16925756,0.25758995,0.33448966,0.35156913,0.34173081,0.4349329,0.47632761,0.56218102,0.54019907,0.53887159,0.60869355,0.53828344,0.47736487,0.55877654,0.57282389,0.43287698,0.44145824,0.54577112,0.43442989,0.39864745,0.41884093,0.44975013,0.39354088,0.42614757,0.35511649,0.38806155,0.36172888,0.2893201,0.38023078,0.35450814,0.4479519,0.38655471,0.45187836,0.57731189,0.68517802,0.82685478,0.85723187,0.97896289,1.1021436,1.2817533,1.3852228,1.0507153,0.67635641,0.59237571,0.56409657,0.5130584,0.49934445,0.46503243,0.32373682,0.12350693,-0.090139694,-0.18375515,-0.17270025,-0.10023518,-0.10599674,-0.10787233,-0.11593778,-0.12433292,-0.24931582,-0.098655615,-0.050941701,-0.069066178,-0.010878954,-0.025472929,0.28947585,0.86234699,1.8468857,2.1886996,2.1154852,2.0731078,1.361363,0.090508332,-1.3371783,-1.6055218,-1.7626518
3021,-0.80730173,-2.9792921,-3.6274281,-4.2530214,-3.6501405,-2.6694967,-1.7977217,-1.5916281,-0.79374403,-0.045937806,-0.22068403,-0.2793181,-0.33249251,-0.21104704,-0.30002793,-0.20195061,-0.19940667,-0.34301428,-0.28629432,-0.3202125,-0.29770094,-0.57592,-0.6871221,-0.56368387,-0.48218235,-0.55744728,-0.74021288,-0.54966616,-0.72612432,-0.94234086,-0.92570424,-0.77903249,-1.024943,-1.0234313,-1.0480353,-1.014665,-0.75362542,-1.0842152,-1.0154779,-0.71205178,-0.78191376,-0.69775211,-0.54931765,-0.34507299,-0.40774503,-0.33549727,-0.31283387,-0.27617907,-0.19348253,-0.064382701,-0.14068848,-0.199873,0.043906907,-0.048625456,0.012989087,-0.003995714,0.16825518,-0.099891066,0.002560541,0.26865266,0.15392629,0.081658934,0.29447137,0.25433837,0.21927845,0.2929937,0.28457762,0.44642306,0.48889739,0.51745264,0.55446781,0.6234095,0.57258798,0.6471884,0.53651101,0.49122992,0.48815287,0.37832387,0.49249687,0.54226227,0.46003439,0.41119091,0.43800162,0.40639614,0.23727771,0.18450144,0.48306224,0.24606646,0.17197758,0.34427351,0.34393344,0.32328418,0.33834727,0.19455828,0.14489251,0.45124262,0.48226315,0.56796733,0.70834314,0.82984967,1.1750207,1.340818,1.492748,1.7162553,2.0486595,2.0064542,1.8241903,1.7652968,1.5210542,1.3666063,1.0746369,0.83599217,0.60185697,0.23184923,-0.084848572,-0.22265138,-0.22919394,-0.16867621,-0.23518965,-0.31669127,-0.42379623,-0.13977271,-0.10014476,-0.19158889,-0.2670995,-0.2326621,-0.096470775,-0.19732514,-0.076847566,0.21209352,0.25799277,0.48169416,0.8368581,1.1462744,1.3704626,1.3302074,1.277554,1.2627253,1.704642,2.347533
650,1.0298882,-0.80537322,-2.8770211,-3.6573735,-4.6443963,-4.3374728,-2.9276979,-1.8143091,-1.5755785,-0.59841896,0.22100838,0.13954573,0.070270792,0.039228472,0.076961422,0.085103103,0.15040045,0.039832555,-0.004255466,-0.092307323,-0.18639782,-0.17135682,-0.056371537,-0.071641066,-0.23776097,-0.31994162,-0.30716071,-0.3569717,-0.45138547,-0.52635186,-0.50856202,-0.61016177,-0.61022991,-0.83247731,-0.7218213,-0.82929529,-0.80724581,-0.83992661,-0.86534662,-0.82382953,-0.75411556,-0.68247127,-0.66010793,-0.60673155,-0.36999666,-0.29628316,-0.12013929,-0.068981855,-0.080303637,-0.021615013,0.11977233,0.18110014,0.16636181,0.061513181,0.13042065,0.072161783,0.097189708,-0.008777565,0.022361844,0.047015383,0.072199203,0.016454341,0.19410659,0.26649932,0.33276774,0.27632537,0.2568591,0.2601587,0.5062202,0.54711607,0.54041409,0.53608061,0.64993059,0.77013125,0.70075615,0.79267095,0.65749223,0.64447374,0.69600428,0.73675639,0.72355845,0.71941546,0.8156512,0.5858205,0.67297398,0.62587395,0.54761582,0.41632935,0.59822098,0.35029013,0.25136148,0.33623412,0.33782095,0.26866358,0.13364477,0.3228267,0.10956295,0.19375049,0.35348227,0.35216785,0.66050508,1.0533099,1.3175112,1.2364384,1.3447586,1.6686114,1.9157906,1.832458,1.7552263,1.4566011,1.2990989,1.1383222,0.77964176,0.70737343,0.092804493,-0.37255469,-0.6266982,-0.59524285,-0.59095725,-0.5770956,-0.64806758,-0.7234455,-0.66283551,-0.74301047,-0.77319762,-0.64558543,-0.54274931,-0.62690256,-0.56636406,-0.52159786,-0.27860283,0.67536567,1.2698303,1.1998636,1.6296737,1.4464062,1.1919066,0.15821464,-0.25013888,0.13447945
3574,-1.431131,-3.4515478,-4.3721919,-4.3920206,-3.641786,-2.5326366,-1.7950692,-1.5818551,-0.87679952,-0.54489958,-0.43864912,-0.46325279,-0.42734689,-0.35760625,-0.43490902,-0.47078459,-0.39085839,-0.3694998,-0.34702457,-0.38761059,-0.41782342,-0.40480109,-0.45736855,-0.42287579,-0.49172126,-0.50072298,-0.58032468,-0.58901757,-0.54008476,-0.58971616,-0.68622052,-0.71579721,-0.69846613,-0.73825136,-0.80534047,-0.74276195,-0.74657945,-0.75759565,-0.61744535,-0.68874973,-0.51259838,-0.38343979,-0.41702168,-0.37108932,-0.26554497,-0.18358439,-0.13108013,-0.060712014,0.031691431,0.050327531,0.046611816,0.033666264,0.035560022,0.080775068,0.11767993,0.097607873,0.059699005,0.0448101,0.092475482,0.09768267,0.12213197,0.20395274,0.10994846,0.23236236,0.23674313,0.21787384,0.35512569,0.33145146,0.4227532,0.46300979,0.45083326,0.49189786,0.58306981,0.62623278,0.65236047,0.59996255,0.68695287,0.58171646,0.60691731,0.5979717,0.49393666,0.61391075,0.56264678,0.45670918,0.50673366,0.46435507,0.43096668,0.43433454,0.41620786,0.42465328,0.40502385,0.46172716,0.47855599,0.521681,0.71009667,0.84379856,0.98876064,1.1094292,1.2641779,1.522933,1.7007608,1.9144259,1.9666093,1.8206533,1.756902,1.5464371,1.333941,1.0034988,0.90652717,0.51128058,0.12481084,-0.10263391,-0.21243678,-0.27959929,-0.21055068,-0.20934664,-0.17120015,-0.21714849,-0.21037621,-0.23895233,-0.2009728,-0.27785136,-0.21967633,-0.23035151,-0.22892205,-0.13174187,-0.12335887,0.18132618,0.6532952,1.0571461,0.96926356,0.79173039,0.96605663,0.89928823,0.70833065,0.60312763,1.1631816,1.495047,0.9082812,-0.96508117
4039,-0.14257597,-2.6862219,-3.9631457,-4.0859065,-3.8017339,-3.2563956,-2.0369301,-1.5926037,-1.3192837,-0.64351907,-0.31031066,-0.29448749,-0.38876136,-0.32014738,-0.37090037,-0.36530386,-0.36199254,-0.41114513,-0.28265569,-0.33372371,-0.41230471,-0.53190595,-0.472483,-0.54457198,-0.53835639,-0.59133574,-0.58547462,-0.57137493,-0.61511324,-0.7085275,-0.73222778,-0.72279323,-0.76935227,-0.71970358,-0.83697072,-0.83370351,-0.88311329,-0.79353242,-0.70207479,-0.70039154,-0.58080403,-0.58823932,-0.59223672,-0.4962438,-0.41441251,-0.23170922,-0.21264712,-0.11372209,-0.18536677,-0.11707076,-0.055498509,-0.028654123,-0.11316951,-0.027347079,-0.010380956,0.005655781,0.045949908,-0.005514782,0.070213521,0.14963881,0.14229091,0.11529689,0.15402631,0.32129746,0.28630979,0.38653095,0.2936071,0.34734572,0.50458802,0.41886755,0.49710447,0.53420975,0.50174121,0.53702405,0.55425003,0.65115994,0.58613028,0.54192069,0.56502732,0.57939192,0.54846376,0.51063343,0.40882872,0.42439524,0.39743132,0.48715198,0.42094029,0.34260592,0.34958316,0.33222202,0.36246588,0.28646263,0.28079541,0.38257305,0.49338215,0.61180408,0.63288776,0.91115551,1.1233609,1.2005053,1.454325,1.7059007,1.9308585,1.8858231,1.8255924,1.7711528,1.4968003,1.3113452,1.0561548,0.84930705,0.4871521,0.059107806,-0.15404949,-0.16327398,-0.27008896,-0.28620872,-0.29705436,-0.25666091,-0.25942626,-0.28981389,-0.25857894,-0.25875468,-0.19972384,-0.27932393,-0.20939824,-0.17232607,-0.2635735,-0.086550091,0.088103671,0.66581425,0.96825506,0.85501153,0.98458826,1.0760562,1.2209081,1.0545162,1.221207,1.7923201,2.2590266,0.39432507
3241,2.6871486,0.15937941,-2.5508971,-4.6722196,-4.5904891,-3.4719081,-2.0516654,-1.053118,-0.84881189,-0.071946419,0.57944464,0.64378092,0.61297894,0.50294309,0.52987985,0.51965081,0.50912534,0.46281992,0.30874879,0.42318282,0.33946623,0.18578584,0.086654928,0.041499546,-0.062423446,-0.16108206,-0.18625976,-0.26838431,-0.40479946,-0.39276534,-0.52453629,-0.57049419,-0.56567363,-0.77392809,-0.84326551,-0.83342219,-0.7674043,-0.82550697,-0.86365133,-0.78359213,-0.78508834,-0.63764458,-0.62184936,-0.4833085,-0.33039201,-0.24896032,-0.27097812,-0.19061365,-0.08031736,-0.058991723,-0.095693969,-0.040359535,-0.018339159,-0.11141004,-0.11282339,0.006434091,-0.041908663,-0.030953339,-0.038199636,-0.079906009,-0.080807513,-0.099827284,-0.038514296,-0.015896652,-0.020500371,-0.066036449,0.098158543,0.21349776,0.18864499,0.19739035,0.2721729,0.26837858,0.33010999,0.43174344,0.28562967,0.39429988,0.35391034,0.2489745,0.37415852,0.3446885,0.34635093,0.31225788,0.25516339,0.21634503,0.13949914,0.088185047,0.017870969,0.052451045,0.04244907,-0.11699897,-0.009560008,-0.11619204,-0.17499165,-0.027491486,-0.12255402,0.024896748,0.14895426,0.43120875,0.64204743,0.79352696,1.0210795,1.1870143,1.5043131,1.7823131,1.7489338,1.6270335,1.6991371,1.3678605,1.0410551,0.67445043,0.50566056,0.17454036,-0.25291665,-0.61891383,-0.73834606,-0.72826957,-0.7268135,-0.83515269,-0.81436596,-0.74923766,-0.75729114,-0.64271597,-0.66883268,-0.64689007,-0.66128117,-0.71835201,-0.64012367,-0.51473744,-0.44928165,-0.15625253,0.51507594,1.0205378,1.0162184,1.3473721,2.112748,2.0821586,1.8609292,1.315013,1.783554,1.1262405
409,0.24847345,-2.1252558,-3.3908054,-4.3063124,-4.1550949,-3.1086515,-2.0692775,-1.6280536,-1.0793305,-0.31892618,-0.32827423,-0.50095029,-0.28538339,-0.2747878,-0.27549562,-0.28743205,-0.28526822,-0.37833969,-0.48712033,-0.49501665,-0.45668078,-0.49389183,-0.56541311,-0.4679385,-0.6127331,-0.60833696,-0.72804912,-0.61795299,-0.71500981,-0.79369358,-0.86639407,-0.98746652,-1.0444266,-1.0596348,-0.95895574,-1.0111755,-1.0270983,-1.1184829,-1.1441105,-0.9205652,-0.81249612,-0.78770058,-0.73255057,-0.50083809,-0.44266873,-0.45386531,-0.34818931,-0.16435705,-0.044713559,-0.22366072,-0.19889918,-0.18274084,-0.10488951,0.10227302,-0.071485835,-0.171091,-0.070697764,0.002530572,0.082301778,0.057284553,0.000651724,0.10319439,0.16042697,0.23958855,0.11064589,0.17687378,0.31409991,0.33111164,0.50142789,0.44842557,0.38482857,0.3785785,0.51518316,0.42373913,0.40293127,0.51937355,0.60448499,0.50508196,0.5128344,0.47778949,0.52801983,0.48404462,0.38397969,0.37115365,0.43795871,0.38213468,0.37829729,0.34149242,0.33919706,0.40016646,0.41506857,0.32692949,0.41793874,0.44390648,0.39440092,0.29058268,0.41762112,0.55874726,0.64799468,0.8745758,1.1509015,1.2205571,1.4298287,1.6808088,1.8716042,1.9009989,1.8325313,1.6211769,1.619152,1.3914258,1.0917599,0.93918317,0.61900204,0.24466766,0.001687042,-0.067821871,-0.044199019,-0.039576558,-0.062620323,-0.073122574,-0.029185046,0.01016606,0.040926165,-0.001440318,0.066738325,0.10209885,0.090890612,0.17528246,0.31505844,0.82795857,1.5984804,1.6495329,1.4924322,1.5914853,1.4109599,0.78890303,0.37851378,0.67799021,1.2788757,0.056673016
3526,-0.53399028,-3.1476295,-3.8532103,-4.2755807,-4.2292306,-3.3172455,-2.0974953,-1.448345,-1.2163898,-0.37433692,0.016848837,0.040300573,0.05263331,0.003785562,0.13308852,0.079240825,-0.033086077,0.016518389,0.022537326,0.008522141,-0.023202104,-0.098616845,-0.075664286,-0.12933283,-0.31255247,-0.31210531,-0.31870765,-0.37256422,-0.49784543,-0.48069506,-0.49196281,-0.57707988,-0.5803702,-0.61554083,-0.62171043,-0.68295478,-0.58715417,-0.54948873,-0.56501847,-0.4821548,-0.45964125,-0.41490139,-0.26508013,-0.17340544,-0.08218443,0.016443733,0.072166621,0.13104059,0.18625562,0.26476115,0.19499682,0.25373823,0.24307877,0.20586576,0.34951677,0.40874008,0.31829289,0.29612977,0.34264292,0.41861614,0.32388002,0.31633353,0.43080416,0.43311373,0.43953687,0.51774283,0.58736556,0.52815059,0.59275589,0.58636796,0.58034554,0.68892132,0.58598169,0.66588567,0.68849998,0.68990338,0.66367039,0.62982804,0.58926508,0.43190155,0.54513481,0.48660499,0.55680828,0.56444101,0.43856159,0.39231394,0.29692468,0.28074632,0.34961354,0.26327674,0.27638633,0.32822088,0.17376114,0.21560506,0.24925117,0.47198139,0.55408844,0.75618674,0.96340659,1.0288722,1.2778033,1.546195,1.8826448,1.9931078,1.8575003,1.9249863,1.6851195,1.3717544,1.2153519,0.916204,0.54015419,0.054806395,-0.31742828,-0.52827362,-0.65178768,-0.71981294,-0.69624581,-0.65000545,-0.71662308,-0.7929018,-0.76570698,-0.70469782,-0.7270286,-0.72758048,-0.78956496,-0.71378226,-0.80022904,-0.70329658,-0.49331504,-0.086937247,0.50755238,0.52562468,0.7515823,0.92629654,0.81527801,0.48685057,0.58263959,0.84592816,1.2382607,-1.30215
4634,-1.4512873,-4.1600631,-4.1209826,-4.2878984,-3.1785262,-2.0528621,-1.5912279,-1.4506864,-0.66054776,-0.31167395,-0.34105544,-0.3632991,-0.28892771,-0.32305471,-0.29171503,-0.26672896,-0.31561452,-0.32522795,-0.35621666,-0.35405009,-0.36918434,-0.48181461,-0.56860575,-0.49665228,-0.52852748,-0.54862242,-0.63896483,-0.72759759,-0.67967938,-0.7799711,-0.7808963,-0.88075621,-0.85822577,-0.83463471,-0.86304289,-0.87087604,-0.79814236,-0.8599935,-0.76180366,-0.70914992,-0.56030919,-0.41941619,-0.44235425,-0.3087011,-0.23299026,-0.21444074,-0.11041997,-0.092133954,-0.1413195,-0.055393929,-0.01539184,-0.14745669,-0.062030675,0.023874559,0.023799802,0.105282,0.17061079,0.059469508,0.11150016,0.16027939,0.20712922,0.21734043,0.21902295,0.29974116,0.27894135,0.30536503,0.35617509,0.44104076,0.48644225,0.4996901,0.49477131,0.53767788,0.54262303,0.48051015,0.54446931,0.57944083,0.55265459,0.55827326,0.54881455,0.4763565,0.4591694,0.39190393,0.5108875,0.45645454,0.3726948,0.35118796,0.35606029,0.32418778,0.34584447,0.33746017,0.32166653,0.34965456,0.32415559,0.35107344,0.36658412,0.31833841,0.32225518,0.37884212,0.47024991,0.62379371,1.0220629,1.3273187,1.4598753,1.6885606,1.9945371,2.176577,2.1499728,2.045841,1.8794443,1.5777517,1.3519044,1.0561536,0.61023788,0.22210529,-0.032715905,-0.13068544,-0.18537091,-0.12390153,-0.1453505,-0.19105673,-0.11613502,-0.10069618,-0.08944446,-0.046313922,-0.043237351,-0.059264072,-0.066494196,0.091614313,0.054853118,0.15555337,0.78678491,1.4141675,1.4168173,1.2523097,0.90812753,0.29918528,0.19705736,0.38353573,1.283799,-1.1580966
1313,-0.22531901,-1.6220586,-3.4795906,-4.0944541,-3.8286765,-3.0725667,-2.2007734,-1.7559217,-1.5024668,-0.96405406,-0.66543819,-0.60202499,-0.61804286,-0.63122308,-0.537943,-0.58077204,-0.54831465,-0.57176289,-0.56312505,-0.5797063,-0.65206961,-0.57600399,-0.6072357,-0.6519106,-0.61731433,-0.69404341,-0.6470926,-0.65357864,-0.67494688,-0.72909746,-0.76679647,-0.86253559,-0.84496169,-0.83884116,-0.87041877,-0.88007456,-0.88902305,-0.82130881,-0.77703827,-0.75880493,-0.76063495,-0.68987858,-0.67630164,-0.57160745,-0.48066678,-0.42274654,-0.29630799,-0.24125595,-0.20904231,-0.11795797,-0.16264872,-0.07691316,-0.068686703,-0.07751031,-0.030933798,0.053097164,-0.028948554,0.01632261,0.047245373,0.13069349,0.12003361,0.15737456,0.16087523,0.23962655,0.21133391,0.20324292,0.2951028,0.33008304,0.35367249,0.42498381,0.45456231,0.49936051,0.55715414,0.62222923,0.61683428,0.57751387,0.66013674,0.65992875,0.58088882,0.60372782,0.65906474,0.61063889,0.60990853,0.58455658,0.59758292,0.55420919,0.49852677,0.50756271,0.45421561,0.53584156,0.5352394,0.47334572,0.43353334,0.4010395,0.54814787,0.68893828,0.73989704,0.87946016,1.0307611,1.1744206,1.453875,1.6330292,1.8815158,1.8827176,1.8608517,1.8666967,1.6033955,1.4051373,1.2195547,0.95778569,0.6777021,0.27359061,0.015977543,-0.14583318,-0.12276038,-0.094471173,-0.17628026,-0.20920651,-0.19921333,-0.13845611,-0.19315901,-0.11670533,-0.1601778,-0.15765173,-0.071133913,-0.031042638,-0.10212996,-0.059235708,0.12225956,0.450369,0.9538663,0.87254442,0.84903382,1.00193,1.1196535,1.1406718,1.049007,1.2593921,1.9047243,1.7986337
2306,-6.7294987,-7.0903741,-3.031183,-1.9920527,-0.74617957,-0.49383719,0.072404818,-0.020017733,0.11822464,0.14071878,0.14671029,0.21539064,0.28549865,0.27952352,0.36588781,0.41345103,0.44353124,0.47195665,0.46046495,0.49653384,0.51520157,0.62654156,0.59858502,0.68988216,0.74367512,0.87052867,0.9444517,1.0384545,1.1482935,1.2038445,1.2629301,1.314352,1.2880984,1.2436725,1.1184748,1.0166716,0.85570306,0.63042681,0.47679558,0.30012233,0.17455463,0.10572492,0.07281948,-0.014056675,-0.020071444,-0.1066748,-0.11703611,-0.084430976,-0.086182294,0.016748952,-0.037391809,0.025674848,0.019229184,0.057030083,0.13314295,0.12094365,0.13883803,0.15255879,0.18424259,0.13886934,0.14895187,0.14413108,0.132115,0.11597438,0.14860672,0.087612848,-0.04346104,0.011156268,-0.017892541,-0.012482615,-0.02768255,-0.048444687,-0.10921829,-0.12953269,-0.13787909,-0.14465635,-0.11772702,-0.10167624,-0.14172778,-0.14326376,-0.1658011,-0.11280378,-0.15272084,-0.085479248,-0.12664744,-0.11377544,-0.11605532,-0.1577658,-0.17720271,-0.1831965,-0.15791014,-0.19777222,-0.21162797,-0.17410042,-0.21070366,-0.22122126,-0.20201987,-0.18378091,-0.14723652,-0.25598329,-0.2670503,-0.25297754,-0.19969642,-0.17809339,-0.24154213,-0.20528717,-0.2338947,-0.067859932,0.11382888,0.2408469,0.34103826,0.41691441,0.64993298,0.83472429,0.77933957,0.77211601,0.65325966,0.49224623,0.2311476,-0.069827526,-0.40548937,-0.49047556,-0.46727852,-0.56587053,-0.44896563,-0.49320838,-0.46732707,-0.44354496,-0.46254828,-0.4450567,-0.4381511,-0.40628274,-0.40349252,-0.18505545,0.14050847,0.32350914,0.78067513,1.0137692,0.84641774,0.38120974
1589,-0.24119515,-2.9960273,-3.9568766,-4.3940035,-4.0794409,-2.9610303,-1.9985014,-1.7442025,-1.0846945,-0.41492603,-0.50202864,-0.46583018,-0.44780828,-0.43674855,-0.44035613,-0.454832,-0.33430972,-0.36593289,-0.4204173,-0.42973104,-0.4987655,-0.49044097,-0.41456417,-0.57604849,-0.57229567,-0.65138261,-0.61817897,-0.56193858,-0.70366934,-0.75191045,-0.79103438,-0.83490436,-0.87453223,-0.83056504,-0.91557305,-0.79572993,-0.78641493,-0.82968453,-0.65815045,-0.63697656,-0.61395762,-0.4563946,-0.32643104,-0.25649883,-0.13590815,-0.090849008,-0.040171358,0.054108189,0.048133675,0.07546277,0.078004278,0.0876404,0.13219127,0.21449851,0.25842955,0.30229073,0.29375085,0.22588301,0.2904344,0.30961015,0.32606411,0.4142488,0.43111427,0.3699334,0.47212882,0.49953463,0.55025199,0.59002494,0.57809582,0.63516742,0.64469885,0.73939717,0.71032723,0.71366699,0.691192,0.66438163,0.6747867,0.68980306,0.62560445,0.60684343,0.62761103,0.57272649,0.55525119,0.55307419,0.55342519,0.51261781,0.54746455,0.45216119,0.43659542,0.51722204,0.41198032,0.45155738,0.36414175,0.39308642,0.43721008,0.35894778,0.41118205,0.37039491,0.43257257,0.6036304,0.89048716,1.1219658,1.2722344,1.4317229,1.5521952,1.8799498,1.9256526,1.9721298,1.952361,1.6070466,1.5305727,1.1689078,0.87262742,0.55873351,-0.017946627,-0.23836272,-0.33477401,-0.38726151,-0.32978142,-0.35118146,-0.39620967,-0.31321375,-0.37982235,-0.32604949,-0.3648933,-0.34913917,-0.33876243,-0.24395563,-0.25137563,-0.16010886,0.21626125,0.89571678,1.1402595,0.77549824,0.70161471,0.26137915,0.063904524,-0.082209737,0.81773977,0.57739468
1678,-1.4377803,-3.5955617,-4.1142931,-4.2018277,-3.3724476,-2.2549959,-1.7843278,-1.4732559,-0.74068468,-0.60258214,-0.55636864,-0.44856851,-0.4393405,-0.51825208,-0.50615441,-0.39956932,-0.4182666,-0.46938006,-0.48649631,-0.46811574,-0.54547742,-0.49725899,-0.47632934,-0.60758114,-0.60162642,-0.6864601,-0.76385557,-0.70413816,-0.79138691,-0.82633382,-0.8901642,-0.89578606,-0.84623003,-0.88241422,-0.9460719,-0.98811699,-0.97645411,-0.92644872,-0.87384087,-0.77087029,-0.76883379,-0.688315,-0.45451574,-0.36237561,-0.28547625,-0.17673679,-0.10575026,-0.099549954,-0.040780687,-0.047036698,-0.069554812,-0.01095162,0.079306285,0.049443119,0.013232301,0.088223075,0.034846035,0.075923317,0.1352418,0.14081945,0.13401067,0.14788802,0.15950738,0.23486813,0.30808511,0.34307032,0.36021862,0.28787588,0.36487682,0.42722776,0.44087535,0.53792217,0.53949637,0.65477446,0.60260032,0.55983216,0.60801613,0.66217279,0.56848189,0.53053218,0.63433241,0.56494084,0.50512191,0.4778749,0.45690721,0.53956071,0.42377648,0.54104753,0.4504261,0.43686873,0.38400405,0.47682683,0.41520099,0.47834155,0.50556379,0.68621921,0.799957,0.90150455,1.0666001,1.1131715,1.3964878,1.5620576,1.7836781,1.9423188,1.8062351,1.797774,1.6704534,1.4078383,1.2391049,0.9990283,0.62478587,0.35426674,0.068900459,-0.072871155,-0.17809542,-0.20270389,-0.16766962,-0.15662537,-0.12721553,-0.047167891,-0.12558566,-0.15468596,-0.18320487,-0.10778172,-0.15616046,-0.096441128,-0.016677403,-0.044275697,0.24487388,0.91130443,1.4518366,1.2853354,1.2357963,1.3526729,1.1383396,0.77657997,0.57347395,0.75214964,1.2393266,0.16992031
1370,-2.3728175,-4.0773425,-4.0563065,-3.9745936,-3.6240458,-2.7659314,-1.7084039,-1.4368701,-1.0692639,-0.61603691,-0.49950273,-0.46005512,-0.3925155,-0.33156949,-0.44578366,-0.46903278,-0.44216992,-0.40199231,-0.3707343,-0.39010801,-0.36985961,-0.48952341,-0.46313328,-0.40461092,-0.4331709,-0.49586907,-0.61416203,-0.56777447,-0.51751047,-0.57159272,-0.59669267,-0.52669534,-0.61302828,-0.6059823,-0.64273958,-0.6213457,-0.60681571,-0.60742136,-0.57424786,-0.5284598,-0.50382944,-0.45626617,-0.33706841,-0.24790541,-0.16690016,-0.094328339,-0.10418978,-0.021833242,-0.021128296,0.026869034,-0.082288237,-0.013327543,-0.080769749,-0.13432263,-0.055251913,-0.067574631,-0.043503115,-0.035017724,-0.02469672,-0.093971413,-0.007292501,-0.015307586,0.024310247,0.04812583,-0.00401383,0.015742046,9.39e-05,0.044231243,0.10805512,0.24759924,0.30812088,0.33295743,0.33013162,0.34529796,0.38756945,0.46075362,0.47238181,0.45624466,0.44833345,0.55233742,0.50906331,0.48517293,0.44346144,0.53840056,0.53565677,0.46628986,0.31074076,0.41708552,0.435685,0.40046871,0.40980576,0.41060538,0.4801286,0.54100492,0.7143809,0.76324611,0.88373318,0.99145161,1.1819801,1.4571091,1.6520777,1.8187675,1.8950619,1.8560845,1.6811002,1.5817281,1.4664153,1.1481663,0.97350889,0.72026107,0.37752347,0.063694769,-0.014873618,-0.039834894,0.003659716,0.020762008,-0.041100399,-0.041843332,-0.085314009,-0.11893207,-0.061697139,-0.12163198,-0.087974855,-0.018771493,-0.037135246,-0.039526249,-0.059588209,0.063447174,0.4185652,0.87197347,1.2590258,1.2192038,1.420707,1.50977,1.3663499,0.99705335,0.87844877,0.96740482,1.0393511,-0.12001567
3535,-1.9724667,-3.3055495,-3.7299595,-4.2590127,-3.8348077,-3.0287501,-1.8706955,-1.4762546,-1.0631554,-0.41444484,-0.30966113,-0.19435082,-0.26039659,-0.28746979,-0.15850064,-0.19218009,-0.19529553,-0.12575504,-0.28046102,-0.17254019,-0.21081279,-0.33683521,-0.32342982,-0.17048851,-0.16081832,-0.23740702,-0.27676055,-0.30423783,-0.27001721,-0.33018441,-0.36305913,-0.25300975,-0.44481785,-0.43720662,-0.4311224,-0.31600023,-0.26050117,-0.35962379,-0.23842046,-0.28149042,-0.21673444,-0.20314756,-0.13342154,-0.037130633,-0.032477532,-0.064448783,0.010471784,0.048426528,0.050496839,0.09906948,0.05672307,0.17510617,0.16628211,0.091568864,0.066478827,0.095536354,0.18034687,0.17484248,0.027592691,0.096335645,0.15583438,0.17163882,0.19916004,0.14464969,0.13831218,0.11561215,0.15536501,0.17808863,0.24573305,0.17282885,0.27137878,0.3960151,0.3941467,0.39163945,0.43162791,0.53919618,0.41847481,0.48002653,0.63651932,0.59692348,0.59216475,0.4542891,0.55966729,0.61790449,0.53041113,0.53002611,0.52872412,0.40926841,0.46514713,0.48891245,0.43009792,0.48806223,0.60719503,0.75493393,0.95011242,1.1076941,1.2767487,1.3596377,1.6895582,1.9560672,2.1117133,2.1555847,2.1259846,1.8417773,1.7226015,1.5446102,1.409175,1.1278175,0.81197876,0.47594144,0.15721456,-0.043875367,-0.15271131,-0.089702127,-0.13383176,-0.14257042,-0.19675962,-0.20081515,-0.15130625,-0.23208299,-0.17970057,-0.21840935,-0.27323834,-0.27945099,-0.25822256,-0.10349187,-0.13457768,0.072056601,0.54475584,1.1279623,1.2757176,1.0537422,0.41421083,-0.46659794,-1.1043298,-1.4260321,-1.0483712,-0.42660697,-0.48075788,-1.7731617
3465,2.4550368,1.155657,-0.71017197,-2.2941248,-3.8681543,-4.0952412,-3.6524761,-2.4340619,-1.509079,-1.2817241,-0.46673222,-0.2490343,-0.055511821,0.11933781,0.12063349,0.022858347,0.13081502,0.24105413,0.26289228,0.28166854,0.22000643,0.038117408,-0.19281154,-0.17082772,-0.020705996,0.13166053,-0.091164481,-0.22972075,-0.2509397,-0.54478953,-0.56864054,-0.48404591,-0.44744934,-0.47140063,-0.54115601,-0.88239391,-0.87203491,-0.61282024,-0.68206148,-0.75126365,-0.50115632,-0.4750542,-0.57314078,-0.35913045,-0.27237908,-0.1021862,-0.21486076,-0.1793184,-0.18447461,-0.18987107,0.021011909,0.37546484,0.34434454,0.078013441,0.12770479,0.045745173,0.17841336,0.03731485,0.17402235,0.097307852,0.13982793,0.075924524,0.26708491,0.37127557,0.44810186,0.32524518,0.22245189,0.43687087,0.63204827,0.50902144,0.29324929,0.5906805,0.58275385,0.67701086,0.63851656,0.54349908,0.47682417,0.55708452,0.54481991,0.61188616,0.70960992,0.3519355,0.21361417,0.093814296,0.31944264,0.46730893,0.35773267,0.094310108,0.16034164,0.23858337,0.23324311,0.37925434,0.32403446,0.17576961,0.48716098,0.90460068,1.0303367,1.3482027,1.4693877,1.7823907,1.9908901,2.2912398,2.1857284,2.0927259,1.8653025,1.539909,1.5798918,1.1755663,0.81662894,0.3776294,-0.12949954,-0.53706537,-1.0687787,-1.0486333,-0.86873078,-0.73661146,-0.87208513,-0.94720098,-0.96197936,-1.0143641,-0.97517017,-0.99278652,-1.0423773,-1.022853,-1.0245359,-0.85705224,-0.87620125,-0.69870057,-0.24350001,0.46436986,0.23076151,0.074142319,-0.001651638,-0.081087624,-0.093691461,0.20127806,0.72625047,1.2215101,1.641904,0.35660536
2246,1.7275416,-0.50690174,-2.6071478,-3.6861413,-4.867567,-4.6054178,-3.0223099,-1.8198751,-1.7179312,-0.60750232,0.37725537,0.2310359,0.25993172,0.23279343,0.38383135,0.31371353,0.20382877,0.15553999,0.19739007,0.039541238,0.004295663,0.065857036,0.00838284,-0.052105212,-0.28447908,-0.25619416,-0.26573093,-0.33710409,-0.52186235,-0.60544214,-0.55860428,-0.57524658,-0.74088886,-0.84622334,-0.95137502,-1.0494493,-1.1280736,-1.0582936,-0.9084864,-1.0160783,-0.97416244,-0.85991681,-0.68419696,-0.76171364,-0.65338049,-0.56883458,-0.31960132,-0.28072268,-0.18821012,-0.008063309,-0.016239666,0.051179858,0.023732209,0.079485434,0.11916178,0.11104035,0.10743013,0.20871625,0.092646825,-0.001199728,0.15275806,0.05534049,0.086975717,0.23692822,0.27517622,0.22171484,0.22468491,0.29523129,0.29398078,0.43955261,0.44846011,0.5001079,0.51969527,0.83645069,0.83306252,0.78685625,0.74477309,0.69541058,0.77699869,0.71586032,0.47129806,0.50259513,0.5405737,0.52723162,0.37496901,0.21566582,0.39535643,0.39015093,0.13142431,0.21820817,0.064912033,0.28375114,0.086362239,0.10618077,0.13258019,0.15967589,0.099707272,-0.039054703,0.12323998,0.12886034,0.067775353,0.002110043,-0.10285667,0.16804071,0.21101452,0.35135776,0.6541136,1.2658291,1.3886289,1.2137289,1.1831661,0.90355217,0.83334544,0.90854549,0.98159766,0.74538455,0.34933673,-0.14965209,-0.44018557,-0.23215839,-0.26583176,-0.25415352,-0.28649917,-0.31516191,-0.22385919,-0.30389978,-0.10349571,-0.13649356,-0.26425582,-0.14880118,0.055461889,0.79412573,1.8708097,1.8048398,2.00892,2.1410709,1.905151,1.3025043,0.28637311,0.69515598
1675,1.9979188,-0.16142435,-2.4678183,-3.6674588,-4.5844792,-4.5273039,-3.0706207,-1.9253179,-1.8202074,-0.83559332,-0.006408135,-0.06400241,-0.002593595,0.021803875,-0.005932551,-0.049040294,-0.035245971,-0.063766478,0.066533468,-0.16400517,-0.15081294,-0.19598256,-0.24806675,-0.21730662,-0.16455915,-0.29243267,-0.44119095,-0.34597156,-0.46844189,-0.65067983,-0.72538884,-0.78941703,-0.95372488,-0.9186133,-1.0484486,-0.89859512,-0.92129443,-1.0959519,-0.95226858,-0.96301574,-0.94404666,-0.85667706,-0.71733252,-0.72556586,-0.56322109,-0.42355202,-0.27986529,-0.21872166,-0.087154426,-0.000537164,-0.087927327,-0.014976658,-0.006011422,0.046669464,0.074680064,-0.085123977,0.14750908,0.10030328,0.13915784,0.22406967,0.22049356,0.18240238,0.083657701,0.25361169,0.31479682,0.32219005,0.2393908,0.31300205,0.47055342,0.55799405,0.632595,0.5831145,0.47043975,0.60025549,0.67159453,0.55629877,0.7059688,0.54798255,0.70621654,0.53799023,0.63855084,0.63109928,0.62212159,0.60239682,0.40395346,0.47480903,0.28439359,0.42784267,0.48429234,0.41310585,0.32252703,0.31943925,0.12785681,0.16225968,0.27539756,0.3391133,0.27374627,0.23009915,0.23997041,0.26793258,0.40663874,0.31437781,0.26613982,0.46313013,0.65106529,0.85872327,1.0418253,1.4781336,1.669062,1.3743028,1.3032244,1.060022,0.96746765,0.77946291,1.0543278,0.79184319,0.37206299,-0.11896621,-0.32252385,-0.34308545,-0.3924131,-0.30993938,-0.41440751,-0.23874638,-0.47595169,-0.39154562,-0.42439248,-0.4655865,-0.26559272,-0.35220044,-0.22863557,0.001566799,0.92064551,1.3281005,1.444055,2.0139386,1.9205825,1.7694623,0.95473188,1.1130873
4060,0.77615951,-0.85344362,-2.81113,-4.3196175,-4.5165229,-3.794213,-2.8042514,-1.6125767,-1.4348865,-1.0370971,-0.3218748,-0.3467875,-0.34437352,-0.27968995,-0.3307279,-0.33798393,-0.37775704,-0.2777258,-0.30084025,-0.36217004,-0.40202202,-0.3104859,-0.32786688,-0.31701453,-0.36436076,-0.30897467,-0.45188971,-0.51251054,-0.52043401,-0.63902733,-0.53048505,-0.55476592,-0.69198229,-0.70974686,-0.70201153,-0.74349846,-0.78853296,-0.70313316,-0.65079112,-0.6593181,-0.56310873,-0.57226684,-0.51685616,-0.41766669,-0.39284598,-0.29697642,-0.14700146,-0.15550855,-0.13254724,-0.094238286,-0.070802794,-0.002082114,-0.10675555,0.049432833,0.029639531,0.020938354,0.079664998,-0.008921493,0.036400354,0.12433771,0.18164946,0.13594807,0.13287335,0.16683594,0.20383,0.11671104,0.30331833,0.36577748,0.39363204,0.38077912,0.35723153,0.43996859,0.51791733,0.57490728,0.52124814,0.56480933,0.58074196,0.59490059,0.48929163,0.52133493,0.54896147,0.43346047,0.39427464,0.40174213,0.43839254,0.40815999,0.48068695,0.36591251,0.39754286,0.34923266,0.33064162,0.35536272,0.33710699,0.43850138,0.59071852,0.7063437,0.86692656,1.0324006,1.1970074,1.4203467,1.6500039,2.0318706,1.9743463,1.9072727,1.8551559,1.6976576,1.594203,1.2824719,0.91539756,0.59939717,0.15846999,-0.084330509,-0.20990677,-0.12593225,-0.18111091,-0.26846473,-0.24985472,-0.17575956,-0.30139651,-0.2748639,-0.12559301,-0.27395532,-0.31987563,-0.28768483,-0.18280298,-0.26956089,-0.097791029,0.093190059,0.6704565,1.1851454,0.92022006,0.91554364,0.87865316,0.75804247,0.81493342,0.82689961,1.50292,1.5168071,0.36087222,-2.004949
486,-1.8758913,-4.3750395,-4.5499222,-4.3802988,-3.0885202,-1.9765057,-1.3702149,-0.99495102,-0.19871732,-0.077547018,-0.051389572,-0.11471716,-0.27156357,-0.14943472,-0.18305888,-0.20145913,-0.13293549,-0.20984599,-0.28645504,-0.30926223,-0.40438605,-0.35401432,-0.41760457,-0.4387504,-0.36259085,-0.56677926,-0.56142901,-0.64061216,-0.75046474,-0.76583049,-0.82668384,-0.79980975,-0.82302878,-0.85842366,-0.93697393,-0.94251876,-0.92267567,-0.91026047,-0.930634,-0.8101344,-0.74947045,-0.63478632,-0.49320136,-0.45495662,-0.38385143,-0.29527026,-0.17545182,-0.11925575,-0.11020556,-0.039245402,-0.016308442,-0.067472322,0.010608683,-0.085703972,-0.037945476,0.095791716,0.067042141,0.097024766,0.011633365,0.054445261,0.016906137,-0.017975573,0.12274883,0.10503183,0.17237139,0.26328308,0.27253105,0.43534502,0.47303461,0.39004353,0.48540509,0.47120528,0.47874823,0.53313121,0.61225768,0.69992855,0.72651678,0.59929215,0.57992629,0.54005622,0.58063162,0.52770061,0.49398533,0.50021784,0.47703662,0.42059667,0.33469994,0.35845718,0.36546189,0.37697132,0.27549309,0.29333932,0.22513939,0.14673131,0.27787646,0.29829267,0.41712412,0.30705658,0.51842644,0.60811684,0.7053771,1.0595031,1.1801673,1.1816512,1.5379493,1.8419235,1.6926415,1.6518258,1.6208878,1.4207817,1.0901561,0.79885014,0.66242341,0.20094684,-0.13913232,-0.12270268,-0.12074855,-0.26146534,-0.24328939,-0.22583809,-0.11046205,-0.19879451,-0.18414049,-0.19728396,-0.23696468,-0.15138735,-0.13264157,-0.069509186,-0.033540595,0.063119781,0.80925687,1.6615668,1.625304,1.4557017,1.7224199,1.6389045,1.0806735,0.44976128,0.71604269,0.94483662
3011,0.35959659,-1.4314642,-3.0864195,-4.373803,-4.357416,-3.5490614,-2.1980909,-1.514343,-1.3326449,-0.60896621,-0.16177194,-0.2504628,-0.22454843,-0.20574548,-0.34669671,-0.28880635,-0.2023618,-0.25946333,-0.18899728,-0.30705906,-0.26236706,-0.44027046,-0.43370946,-0.36117086,-0.38506512,-0.38935316,-0.61909563,-0.57515425,-0.60843909,-0.74637651,-0.76436882,-0.83465412,-0.84760129,-0.83111576,-0.95114962,-0.97215532,-1.0003406,-0.94643429,-0.9252351,-0.87652187,-0.87769569,-0.7168951,-0.6065822,-0.56170856,-0.47884772,-0.39712309,-0.30305973,-0.12749227,-0.12366148,-0.050972,-0.1616596,-0.088844142,-0.043669552,0.039040194,-0.018986314,-0.041510533,0.11053041,0.055474926,0.08442137,0.14585582,0.11304934,0.0941619,0.13951981,0.10911488,0.23952746,0.23768627,0.14390661,0.25683993,0.28790961,0.37142901,0.37646612,0.43001006,0.57621332,0.36642556,0.48492595,0.58641607,0.54036765,0.51402525,0.56323897,0.60155104,0.54059796,0.48121135,0.48838706,0.44776273,0.49634963,0.50270985,0.42901654,0.36210889,0.40182164,0.46937836,0.44367475,0.27175333,0.33794309,0.38463127,0.46509527,0.5863577,0.76592749,1.0210296,1.1915791,1.1386244,1.3862534,1.6643181,1.9568935,2.1114761,2.0127758,1.9449036,1.6557337,1.4733561,1.2328497,0.97883089,0.68597439,0.29771015,-0.06658171,-0.22550607,-0.19725035,-0.34195424,-0.31767746,-0.33284717,-0.18605721,-0.21573285,-0.36581476,-0.27830988,-0.27545322,-0.24647622,-0.19991592,-0.13651651,-0.086517766,0.015639202,0.65716886,1.3480833,1.2411712,1.0147758,1.2418205,1.2397312,0.82460139,0.53012221,0.82254482,1.2962031,1.0124499,-0.96903107
870,-0.44579819,-2.462103,-3.6164782,-4.4649659,-4.2680321,-3.6351665,-2.6740737,-1.6949611,-1.4311076,-0.80180109,-0.39259872,-0.33242101,-0.32454224,-0.38534622,-0.29976961,-0.28025754,-0.2432401,-0.33034125,-0.31786367,-0.32097647,-0.31346807,-0.3944983,-0.42382469,-0.4500958,-0.37003087,-0.41927187,-0.49143241,-0.53105772,-0.55193119,-0.57190117,-0.57834644,-0.60859891,-0.56383572,-0.64124302,-0.71103666,-0.70575251,-0.68531963,-0.65071799,-0.65162731,-0.63121737,-0.53055984,-0.50736051,-0.39585775,-0.31318304,-0.27169653,-0.17782779,-0.13924955,-0.076583442,-0.071561988,-0.027648887,-0.019234077,-0.009296084,-0.05903747,-0.082215559,0.034002311,0.075617884,-0.023797997,0.020814768,0.018532693,0.034324529,0.043100606,-0.024070929,0.036334087,-0.007274438,0.022218835,0.081035888,0.059254,0.17142258,0.18068503,0.20114858,0.24759358,0.26033588,0.33397069,0.48986781,0.48291647,0.55987685,0.47042536,0.55065042,0.5089392,0.52069785,0.55120557,0.5835195,0.5379298,0.52673839,0.53494787,0.45541147,0.45602595,0.48378951,0.50040567,0.46567644,0.42241058,0.43966082,0.47366772,0.45039721,0.57376308,0.71394491,0.8226179,1.0212858,1.1425265,1.2394277,1.4257542,1.6072375,1.8414709,1.7109371,1.6308105,1.608493,1.4742519,1.2753653,0.98567974,0.92351016,0.57066384,0.28295753,0.093189725,0.067426592,-0.061143692,-0.063716739,-0.087174426,-0.083548538,-0.098705219,-0.014236485,0.021480277,-0.097160752,0.038060473,-0.00768312,-0.050054347,0.044285559,0.091426069,0.26800086,0.5224181,0.96464891,1.0365332,1.1589735,1.3538654,1.3157528,1.1240272,0.76407523,0.99404144,1.1215399,0.42761338,-1.5766777
2772,1.5565185,0.85876083,-1.5589394,-2.6221347,-3.7673909,-4.2705207,-3.1917805,-2.1843755,-1.7465145,-0.89697112,-0.10954881,-0.07101212,-0.04076295,-0.072116666,-0.13908729,-0.18126991,-0.15824675,-0.11402225,-0.17784463,-0.24999404,-0.28574325,-0.34380828,-0.44256291,-0.30911482,-0.51318198,-0.50928007,-0.66625168,-0.65352592,-0.70798513,-0.86061646,-0.84554338,-0.95372216,-1.0099213,-0.999319,-1.0293805,-1.1209707,-1.0309029,-1.0819176,-0.91441829,-0.98178941,-0.99320771,-0.89494792,-0.62877664,-0.52935139,-0.44699791,-0.36848536,-0.23802893,-0.23442759,-0.13865209,-0.11763925,-0.11829243,0.052257014,0.049068912,0.13391155,0.10722407,0.13498971,0.024429087,0.16095768,0.1990739,0.17293519,0.194196,0.27797641,0.33865627,0.37753243,0.39209288,0.46570456,0.54232164,0.57671517,0.55083262,0.61881191,0.67206483,0.6358981,0.74163092,0.69008487,0.70432635,0.54536105,0.71987459,0.58799578,0.44831382,0.50421633,0.48506717,0.46110265,0.41055624,0.33333418,0.44308554,0.29320494,0.35853249,0.31346136,0.31383183,0.29902726,0.16780297,0.23503743,0.26178237,0.20332722,0.26790617,0.21460066,0.24029343,0.28599374,0.27067743,0.21148331,0.2183158,0.45936026,0.61229718,1.0943657,1.3160187,1.5560103,1.6115253,2.0051977,2.4224479,2.3334815,2.3513767,2.0348012,1.9125959,1.5460045,1.1382187,0.55228418,-0.1850841,-0.5474487,-0.5346915,-0.55522981,-0.60819647,-0.52414478,-0.51698608,-0.51742419,-0.5484436,-0.48129329,-0.50940972,-0.48253812,-0.46010883,-0.52830218,-0.2957886,-0.21195177,0.1121545,1.0311687,0.87692936,1.2533558,1.2800882,0.80600354,0.061307721,0.33818685
4340,0.85715423,-1.7186501,-3.9766879,-4.5936185,-3.5758151,-2.1897621,-1.0594941,-0.81772557,0.001003067,0.77699924,0.72763287,0.78821756,0.81985332,0.7464386,0.6900439,0.79295481,0.61747554,0.66897187,0.6100656,0.56391739,0.51623271,0.42120709,0.47283382,0.31890078,0.2784895,0.21583201,0.12449331,0.14723943,-0.073472074,-0.15490453,-0.19165162,-0.26509571,-0.25861844,-0.37317477,-0.53949944,-0.53394134,-0.51148901,-0.53536768,-0.32994474,-0.40028154,-0.32723008,0.016853565,-0.076160674,0.074603223,0.20787946,0.27025111,0.57002479,0.39984498,0.41409508,0.61128878,0.56351124,0.59548696,0.51269496,0.59976054,0.54880263,0.48667322,0.54292931,0.36490657,0.52833316,0.59428229,0.52501211,0.57268407,0.4349783,0.62253238,0.60658664,0.65592868,0.63863889,0.68244034,0.68716019,0.70814008,0.7377193,0.85466538,0.75118181,0.78740005,0.81450389,0.74548833,0.68435838,0.57132453,0.63649284,0.42156077,0.43150137,0.42747598,0.22368044,0.30559219,0.25236354,0.23616311,0.10541827,0.11935297,0.1375103,0.010335173,0.045268858,-0.071049223,-0.026524302,-0.090868136,-0.12090504,-0.023504636,0.13306231,0.29535047,0.6016022,0.79375108,1.0419887,1.2312658,1.5959552,1.6700467,1.5152084,1.538711,1.4480077,1.0998185,0.67969004,0.30448582,-0.076104857,-0.5477849,-0.91169696,-1.2689906,-1.5289468,-1.4371312,-1.3812548,-1.3899219,-1.5597746,-1.4783806,-1.5507572,-1.6212263,-1.5950315,-1.6194047,-1.4818923,-1.5297664,-1.4536412,-1.5010461,-1.3065658,-0.50525783,0.064300134,-0.0849547,0.097043909,0.2747503,0.33348094,-0.20893053,-0.060077084,0.48828611,0.61386416,-1.3783318
694,1.1816985,0.58666154,-1.3600329,-2.6354304,-3.63063,-4.2106994,-3.2930131,-2.3255317,-1.9911273,-1.2560908,-0.29393885,-0.14288672,-0.27547202,-0.27056712,-0.18942874,-0.14850913,-0.1251049,-0.13277855,-0.30492039,-0.28165428,-0.27118512,-0.27713324,-0.47903289,-0.41694205,-0.49633798,-0.43184205,-0.65130038,-0.70904221,-0.63819011,-0.75602134,-0.85173747,-0.92824157,-0.94105451,-0.99295002,-1.0401219,-1.091641,-1.1277291,-1.1212991,-1.1705321,-1.0722393,-1.1059237,-1.0299145,-0.92698,-0.69579593,-0.6122342,-0.52525228,-0.51149852,-0.28024939,-0.27403889,-0.19932562,-0.04772349,-0.098528294,-0.13115406,-0.04689353,-0.02534529,-0.047677007,0.00093237,0.14168126,0.064475444,0.036509059,0.17546976,0.10692517,0.22671562,0.13002192,0.25307962,0.3311672,0.3134099,0.42584343,0.44751671,0.57770571,0.56888256,0.56643949,0.64829697,0.65837252,0.63967358,0.67727043,0.6267372,0.50786421,0.52809873,0.50500424,0.52193346,0.455322,0.4890018,0.51199421,0.51693196,0.4544811,0.40316602,0.28932225,0.30912119,0.35310116,0.31679181,0.34130125,0.27534429,0.27924662,0.32223888,0.24113179,0.28886419,0.2523614,0.14283185,0.36174431,0.41814904,0.60151174,0.83102162,1.1175722,1.3154785,1.2791188,1.710968,2.1375097,2.3892268,2.3251965,2.2443728,2.0206043,1.8596129,1.424568,1.0139349,0.47549402,-0.11535298,-0.36178054,-0.31918512,-0.36761357,-0.32210881,-0.27271242,-0.38782089,-0.16875785,-0.32418915,-0.35536323,-0.23543284,-0.21849301,-0.13075895,-0.19414665,-0.17393045,0.11746276,0.90993373,1.116631,1.0616099,1.4402126,1.0923131,0.78152507,0.2367912,0.86506691
1581,0.060573363,-0.3610305,-1.4380697,-2.5124154,-3.1968167,-3.4500451,-2.8400456,-2.1102044,-1.9498447,-1.5228996,-0.83745032,-0.85073206,-0.87359865,-0.84420493,-0.78537946,-0.74381907,-0.78293893,-0.75547223,-0.76101437,-0.73176227,-0.84021715,-0.77753907,-0.84763237,-0.81339348,-0.9448031,-0.85860386,-0.85664933,-0.97741729,-0.96173046,-0.97891907,-1.0175103,-1.1124351,-1.0510677,-1.0854045,-1.1720961,-1.1293393,-1.1405404,-1.1720927,-1.134824,-1.1329212,-1.0388608,-0.93818003,-0.91886122,-0.82051178,-0.72168028,-0.61563993,-0.53501593,-0.50961021,-0.36211618,-0.29057923,-0.30148221,-0.31402788,-0.19371504,-0.20782774,-0.1534206,-0.044347011,-0.12454425,-0.039916195,-0.004932985,-0.023304592,-0.029580637,0.02121846,0.051543299,0.045779149,0.18291627,0.25175861,0.25036251,0.26262446,0.36147823,0.3706703,0.41288364,0.42579646,0.48568762,0.50637402,0.50416891,0.45375698,0.5112709,0.52648577,0.50923793,0.45854406,0.51805762,0.49675914,0.5324763,0.46948696,0.49773191,0.45932366,0.58261843,0.52374938,0.50790428,0.45031574,0.45003634,0.45070851,0.42098806,0.42747785,0.56461551,0.52673409,0.49955394,0.57977056,0.48796083,0.48777963,0.51502263,0.58457901,0.78879844,0.9993245,1.1449436,1.2621106,1.3899787,1.58008,1.9036247,1.9238868,1.8407822,1.7140997,1.6409895,1.4841736,1.2948714,0.98880873,0.51743496,0.31213774,0.30148816,0.29806909,0.33203004,0.36568435,0.36797078,0.42990249,0.32995369,0.43388694,0.43420005,0.4403316,0.47625962,0.54277313,0.58620485,0.69731054,1.0257001,1.5477709,1.4357569,1.5666532,1.7941136,1.5756498,1.152364,0.93413486
4362,-1.090191,-3.4802699,-4.4291399,-4.3562918,-3.8120226,-3.002867,-1.7165703,-1.59268,-1.1380392,-0.3866287,-0.33925517,-0.19047346,-0.24806536,-0.35137627,-0.26113547,-0.27654188,-0.26220644,-0.20551445,-0.28146914,-0.26928795,-0.26962544,-0.36295647,-0.40316413,-0.34085968,-0.39434449,-0.38939915,-0.52446547,-0.48610533,-0.53434683,-0.58001563,-0.5061285,-0.67212808,-0.63590232,-0.70389774,-0.69087628,-0.74236395,-0.69748443,-0.53601286,-0.67952103,-0.65247439,-0.4885835,-0.40296223,-0.37334738,-0.2656321,-0.17143442,-0.16621015,-0.024611381,0.035059219,0.041979481,0.11294238,0.21677733,0.13735506,0.13532892,0.10537327,0.15628736,0.25959828,0.21356493,0.15328606,0.17380613,0.17426746,0.15821408,0.19441092,0.28881515,0.30658603,0.26870486,0.37869725,0.27138112,0.33038746,0.44430612,0.41053839,0.51779219,0.44984827,0.60318297,0.58340357,0.54680322,0.63259665,0.59256889,0.53192084,0.65742522,0.68738905,0.60324202,0.54491033,0.47573259,0.54029625,0.45427098,0.4084841,0.4991089,0.46091617,0.42062415,0.36802445,0.37950211,0.42585869,0.43104537,0.30052703,0.46471179,0.49273684,0.71177146,0.88227788,1.0220021,1.1387361,1.3266478,1.6787228,1.9398227,1.8302979,1.7635811,1.7063149,1.6452505,1.4126425,1.0652197,0.92722933,0.58829046,0.14851906,-0.10629768,-0.25496075,-0.38548678,-0.37292146,-0.39258737,-0.33899691,-0.43398333,-0.44031127,-0.44406877,-0.54078697,-0.54329715,-0.46575707,-0.53867507,-0.5521551,-0.42092118,-0.39582501,-0.22060704,0.35420383,0.91860048,0.89268505,1.0988739,1.2333305,1.1632302,0.88991368,0.55094137,0.85218233,1.332799,0.11784171
3060,1.7443993,0.30947076,-2.2413163,-3.5461559,-3.6311431,-3.0879441,-2.3169423,-1.5733766,-1.3997907,-0.9859646,-0.33702034,-0.26076431,-0.29450413,-0.39813082,-0.35488789,-0.26550658,-0.35096738,-0.39764393,-0.38631641,-0.46916428,-0.46474347,-0.5020895,-0.5281902,-0.55991255,-0.6390037,-0.64986449,-0.6615879,-0.70533627,-0.78794546,-0.87587986,-0.92862738,-1.009146,-1.1009686,-1.1680687,-1.3158884,-1.2629059,-1.2435149,-1.3419573,-1.2574019,-1.2455876,-1.2994753,-1.2930673,-1.1172367,-0.98258684,-0.9606121,-0.87359007,-0.69699397,-0.58602109,-0.40587233,-0.35276167,-0.2406872,-0.0373802,-0.035346482,-0.065789845,0.054841706,-0.009911356,0.073660053,0.069023376,0.10256646,0.034268461,0.091989253,0.088021523,0.15565947,0.19484051,0.18531346,0.26966672,0.37601514,0.33178403,0.37012088,0.44007295,0.4352533,0.48050533,0.60022237,0.6347744,0.58449435,0.61892054,0.68723354,0.71980166,0.66200407,0.70309768,0.6659942,0.640879,0.658905,0.57540832,0.57349827,0.51699117,0.52793956,0.45311866,0.46269958,0.46439821,0.49684426,0.51797579,0.53699731,0.50506028,0.5729704,0.66295669,0.72915383,0.8663948,1.0184096,1.140104,1.3086956,1.5947256,1.8910547,1.9133569,1.8592278,1.8186392,1.6646601,1.4678478,1.2703859,1.0383938,0.69392813,0.40848431,0.025355279,-0.14711908,-0.19145145,-0.21616383,-0.20958386,-0.21103671,-0.22414189,-0.18895018,-0.22516643,-0.25779297,-0.30063857,-0.29971101,-0.25255838,-0.20456563,-0.2961357,-0.24338027,-0.016883982,0.39155994,0.80039711,0.7280099,0.83349608,1.0435273,1.3230328,1.2603094,1.1074699,1.3270575,1.9695353,1.6449014
1952,-0.24591966,-2.5400678,-4.0940229,-4.6912569,-3.9359692,-2.7751118,-1.9872335,-1.7186052,-1.0999515,-0.41866217,-0.47149286,-0.4414189,-0.29683236,-0.37360231,-0.33586577,-0.40825634,-0.37639012,-0.34335351,-0.46681458,-0.44508683,-0.46428032,-0.40794991,-0.44510494,-0.42559304,-0.41993148,-0.51699813,-0.60858021,-0.69039688,-0.62376432,-0.63847482,-0.72113097,-0.80373583,-0.89805918,-0.84777076,-0.85334393,-0.90849342,-0.86042195,-0.79349828,-0.77431305,-0.81241155,-0.61322419,-0.62333067,-0.54724154,-0.44520512,-0.37814609,-0.19812108,-0.20938152,-0.0671117,-0.06574454,-0.07564403,0.046702422,-0.033322335,0.080313416,0.016032352,0.03919003,0.09392203,0.12730297,0.1528229,0.1318295,0.078855906,0.15025253,0.13528261,0.20656255,0.2174202,0.15107,0.19663053,0.21356958,0.34292156,0.32638908,0.39821294,0.43833165,0.41277466,0.51475214,0.53395574,0.60018618,0.64132975,0.64299554,0.67429247,0.65853388,0.57267918,0.51229941,0.46319424,0.4749661,0.53482163,0.51099731,0.48252745,0.43399077,0.48291996,0.4751546,0.44282895,0.3505528,0.34681191,0.36167934,0.32091725,0.36109345,0.29196205,0.40863861,0.58065655,0.85973837,1.0744896,1.0608619,1.2073153,1.4637715,1.6695034,1.6456186,1.5776465,1.5021555,1.1526828,1.1247081,0.97578517,0.78524987,0.58255403,0.23072419,-0.00274163,-0.17598304,-0.14834328,-0.20771943,-0.25128082,-0.15534687,-0.14693421,-0.1821475,-0.21252213,-0.13343128,-0.19597474,-0.20578952,-0.18148421,-0.19958817,-0.13372372,-0.01706539,0.30429509,1.0304447,1.2936323,1.4867727,1.9804206,2.2403556,1.8034803,1.1582461,0.6026841,0.94067662,0.4017763
2404,0.59426445,0.4929122,-1.4095784,-2.7562986,-3.6625308,-4.1268619,-3.1034876,-2.1130339,-1.9978106,-1.0809345,-0.27030955,-0.39150829,-0.28125662,-0.27578336,-0.30926829,-0.36078619,-0.31473326,-0.35992243,-0.3893181,-0.40816704,-0.4403014,-0.55978154,-0.66244256,-0.64420697,-0.60349718,-0.72255801,-0.71833769,-0.83077059,-0.78356153,-0.90944344,-1.0130737,-0.96080842,-1.0499105,-1.0757968,-1.1681807,-1.13946,-1.1261846,-1.1407704,-1.1299112,-1.0724448,-1.0128739,-1.0385681,-0.89665629,-0.75410014,-0.5452444,-0.48191961,-0.39479411,-0.38669178,-0.31453721,-0.29188789,-0.19085722,-0.13002624,-0.13949125,-0.21728458,-0.20175632,-0.09960028,-0.035196229,-0.097969274,-0.12187492,-0.10402935,0.057460495,0.10879341,0.1266851,0.15310284,0.14855775,0.24702961,0.21475872,0.30666353,0.34381696,0.30730917,0.34476061,0.42973371,0.40203891,0.56529772,0.59444056,0.57416232,0.69549367,0.68450465,0.54957478,0.60401704,0.5582038,0.48647184,0.47599759,0.50703724,0.46795493,0.38934357,0.43223148,0.42736453,0.48252193,0.32477063,0.4025806,0.3686955,0.31862049,0.34586649,0.23261381,0.25369405,0.39719128,0.31169112,0.30315696,0.25487371,0.46606218,0.47329185,0.65335077,1.1238722,1.222473,1.4442148,1.5468453,1.7738928,2.1525531,2.220545,2.1941819,1.9536846,1.8620056,1.6219651,1.2392368,0.806876,0.25362842,-0.059675008,-0.032940233,-0.010598616,-0.06298447,-0.089230053,0.005422472,-0.020903922,-0.021313039,0.058264445,0.015790028,0.060657141,-0.005711699,0.15548548,0.039998694,0.25794168,0.78911136,1.3522564,1.3110221,1.6523566,1.6012356,1.2544562,0.6298632,0.64294702
1613,-0.87931484,-3.333382,-4.3638097,-4.3952786,-3.8101385,-2.8282826,-1.6532415,-1.4133448,-0.97888001,-0.28616816,-0.25893812,-0.24565342,-0.15783875,-0.30852866,-0.25794572,-0.2256981,-0.27209266,-0.23520899,-0.23721629,-0.23989536,-0.3030666,-0.29069553,-0.36696216,-0.35987511,-0.3978638,-0.44943658,-0.47006138,-0.44329031,-0.50332963,-0.50755029,-0.53123259,-0.53290016,-0.67514409,-0.63208333,-0.58769664,-0.72150557,-0.66472554,-0.59805073,-0.61335555,-0.5091696,-0.45863684,-0.40914531,-0.341408,-0.27573044,-0.19492662,-0.099781248,-0.048622053,0.050779915,0.051731652,0.017633023,-0.028710453,0.024273774,0.091795665,-0.048630938,0.038398038,0.063913143,0.080425529,0.089586807,0.20607595,0.14947732,0.05981185,0.18154513,0.17095433,0.14981774,0.23386184,0.27917254,0.3482346,0.28063595,0.44220873,0.49648946,0.4614421,0.55729731,0.59902099,0.57869668,0.62101898,0.63546633,0.7412737,0.63943522,0.55338381,0.54884759,0.5925146,0.56242696,0.49108898,0.46450791,0.41014961,0.5020434,0.47207922,0.41026864,0.38266111,0.41567911,0.41312555,0.41754051,0.44690856,0.49638086,0.63319764,0.75158762,0.93259013,1.0422824,1.265766,1.5409476,1.8063032,2.0440801,1.9454272,1.9594645,1.8404316,1.6311191,1.4760923,1.1168964,0.90648894,0.57765028,0.19289405,-0.19093554,-0.34611113,-0.29525741,-0.43941125,-0.45123935,-0.40815042,-0.39242701,-0.35986483,-0.33745349,-0.34044087,-0.37901893,-0.45477576,-0.47637934,-0.50448807,-0.34354961,-0.3639161,-0.1869489,0.33914324,0.91509164,1.0675002,0.88299678,1.0533584,1.0371783,0.64893249,0.37746486,0.80183267,1.2222195,0.54179903,-1.7560052
387,-0.87675733,-3.3603157,-4.600107,-4.8961377,-3.8652326,-2.6121481,-1.7606293,-1.4757612,-0.75433745,-0.17381668,-0.14039461,-0.19385163,-0.15476651,-0.15904857,-0.21662585,-0.21164032,-0.23807888,-0.29950134,-0.2441402,-0.3170014,-0.38569625,-0.3917271,-0.58595836,-0.43588675,-0.51819355,-0.61866368,-0.64843817,-0.71581566,-0.73632559,-0.78247732,-0.73970679,-0.88892987,-0.89679312,-0.95107106,-0.90573275,-0.92199752,-1.0477728,-0.94365451,-0.86444362,-0.77434947,-0.61329436,-0.63587213,-0.49126897,-0.30005712,-0.2627249,-0.25371463,-0.072703258,-0.050358078,-0.031141759,0.12218962,0.018822613,0.031846114,0.092012303,0.085047361,0.1492499,0.10484268,0.026541057,0.053500025,0.11208123,0.14326748,0.14559709,0.25192665,0.25360033,0.2901289,0.28707825,0.46117648,0.48008707,0.49858123,0.63628765,0.62457479,0.69811825,0.61974714,0.68040948,0.77027324,0.72978545,0.66837838,0.69114686,0.76614766,0.68498365,0.61004225,0.58378751,0.5474957,0.5522401,0.51470726,0.57271732,0.39825415,0.45400655,0.34909759,0.39784524,0.40143832,0.32760552,0.42892706,0.43342701,0.33735028,0.35912626,0.3704704,0.35922391,0.42605424,0.54659042,0.64672688,0.75350226,0.86455403,0.88222593,1.1274652,1.3270311,1.2775255,1.0010517,0.61700391,0.67591908,0.59439642,0.6939544,0.6259235,0.40635594,0.14044323,-0.22943115,-0.16845024,-0.071468706,-0.18684088,-0.13604161,-0.10748342,-0.15670646,-0.17093466,-0.11552287,-0.11864607,-0.035977428,-0.097101356,-0.000818908,-0.050751173,0.051273067,0.36200738,0.88910871,1.2178822,1.2405921,1.5579901,1.6425024,1.4841128,1.3426116,1.3601031,2.0445887,0.68654928
823,-0.98785136,-2.2919252,-2.9651032,-3.5888767,-3.7494229,-3.5039341,-2.753948,-1.8063463,-1.1739372,-1.1151139,-0.55240683,-0.035095523,-0.20112447,-0.24670723,-0.18384306,-0.11063271,-0.22587023,-0.41630679,-0.32880127,-0.020321651,-0.089101187,-0.20363414,-0.24455634,-0.27604185,-0.27519924,-0.38626202,-0.31495488,-0.29090264,-0.39956763,-0.37214215,-0.28488907,-0.27437624,-0.25369827,-0.23878791,-0.04271285,0.034494873,-0.059842923,0.010132228,-0.13441468,-0.012252377,-0.014866083,-0.097018543,-0.074923528,-0.069634141,0.131708,0.25780804,0.2115838,0.19192402,0.19310013,0.1825739,0.16946249,0.064523194,0.04698047,0.061659634,0.023752757,0.15769216,0.22539482,0.10087901,0.20238264,0.1086184,-0.067070738,0.090720525,0.15278704,0.1542951,0.12659374,0.14693314,0.1902096,0.18372672,0.088563343,0.10390566,0.36091768,0.38152617,0.3963036,0.43347073,0.44261074,0.40680966,0.36286419,0.414173,0.53351449,0.54495357,0.52261191,0.47982493,0.44242819,0.54879104,0.51898706,0.59456719,0.57449324,0.5070312,0.42214512,0.55472271,0.59520847,0.47637238,0.62383681,0.61811614,0.69456709,0.75031611,0.82709969,1.0767281,1.238827,1.4149426,1.7328886,2.1169706,2.3401004,2.2895589,2.1152688,1.8965876,1.7658238,1.6512133,1.2353992,0.83830392,0.50021836,0.15689236,-0.023318762,-0.24234949,-0.32737027,-0.21046607,-0.30502897,-0.34211842,-0.27947323,-0.28579073,-0.32317511,-0.3504894,-0.31176785,-0.34581119,-0.34298904,-0.3034013,-0.28904413,-0.10948654,0.14125992,0.85695963,1.4357099,1.375064,0.70438532,-0.22862409,-1.0698653,-1.9498906,-1.9429791,-1.5176105,-0.84110015,-1.8472025
4247,-0.43410796,-3.0166079,-3.9591819,-4.6995561,-4.6119042,-3.6240435,-2.0233778,-1.6976125,-1.3069741,-0.26263983,-0.096293066,-0.18996636,-0.19926612,-0.10420579,-0.037232383,-0.055317888,-0.010836845,-0.20115688,-0.045551821,-0.068455824,-0.16014508,-0.29086934,-0.23880701,-0.1763032,-0.32568354,-0.36515171,-0.42531739,-0.37257929,-0.45522834,-0.54370346,-0.4560943,-0.65867566,-0.58472818,-0.61277699,-0.74997382,-0.70951216,-0.87703043,-0.7741506,-0.57641623,-0.69495915,-0.59810412,-0.41728382,-0.42257713,-0.33199445,-0.15085177,-0.19121028,-0.11670988,-0.042362397,-0.09856414,-0.012135761,0.048434505,0.13443031,0.052165032,0.10903692,0.080955137,0.083140018,0.093838557,0.082968974,0.081612844,0.2056097,0.25042026,0.30050827,0.29315033,0.31954826,0.1738018,0.3943168,0.38005716,0.4527738,0.537919,0.42630649,0.56665228,0.49269698,0.50513968,0.59692931,0.63108349,0.51670383,0.46358082,0.47906808,0.4802838,0.3617127,0.34682586,0.3922164,0.32783942,0.39539221,0.37594311,0.39232367,0.39389299,0.37149249,0.26617609,0.33820538,0.36283954,0.21438764,0.19615109,0.2775119,0.34685791,0.32774695,0.43130509,0.41825899,0.49638664,0.59754721,0.62196218,0.76655623,0.73785934,1.0543357,1.2429732,1.3172556,1.1678496,0.8875307,0.73261618,0.65503401,0.60360508,0.691116,0.53717845,0.36221142,-0.13586458,-0.26891835,-0.33125072,-0.34322824,-0.3258949,-0.29161008,-0.21181483,-0.23307339,-0.27289269,-0.23390904,-0.30712607,-0.17555251,-0.23058104,-0.13853933,-0.06322872,0.028003001,0.58875671,1.0913109,1.1901274,1.3184718,1.4598651,1.3084098,1.5161372,1.7116517,2.8745767,1.3081331
412,-0.33398123,-2.2861482,-3.4534068,-4.2574167,-3.697944,-2.7577626,-1.9326357,-1.7428139,-0.97229991,-0.47632912,-0.41116631,-0.59432495,-0.53052761,-0.60066163,-0.57625514,-0.52013774,-0.48423286,-0.45934146,-0.61224466,-0.65992728,-0.62040977,-0.61248288,-0.67817405,-0.73394378,-0.72378687,-0.77503785,-0.83809741,-0.83252459,-0.82919905,-0.88249006,-0.95288557,-0.96395689,-0.99957857,-0.98500486,-1.0136302,-1.0712338,-0.99924863,-1.0056857,-0.98168599,-0.90567116,-0.84772133,-0.77933864,-0.68093554,-0.63409762,-0.52788807,-0.39716028,-0.31350345,-0.21710076,-0.21685866,-0.15351615,-0.13018576,-0.063480744,-0.020437536,0.076512809,0.005610085,0.052199288,0.086933211,0.092964493,0.19693914,0.13811702,0.15805302,0.2003545,0.1857005,0.20695153,0.23099108,0.37741949,0.30709155,0.39309692,0.45624538,0.54133117,0.44216954,0.55709646,0.64595584,0.65420285,0.71557523,0.66919653,0.64504559,0.69392819,0.6918609,0.74123812,0.69696879,0.67191704,0.659045,0.6876549,0.65680243,0.63150729,0.65361479,0.61838154,0.62367153,0.45850002,0.54855905,0.58383356,0.47815602,0.5347814,0.51706276,0.61555697,0.57725359,0.74710273,0.89023963,0.98655562,1.2300019,1.4017798,1.5932997,1.7867258,1.963216,2.0290183,2.0165821,1.8907482,1.6305222,1.546928,1.1845206,0.89043046,0.57293001,0.14746952,-0.032019814,0.005067087,-0.076514723,-0.10510765,-0.075616845,-0.048471508,-0.036965538,-0.048047292,-0.040831445,0.02244841,-0.026778135,-0.06162311,0.012568423,0.014697569,0.13784532,0.41151717,0.99324707,1.13464,0.88246104,0.68165066,0.44998013,0.17741117,0.27688699,0.74877832,1.4106098,0.054559283
282,-1.4010531,-2.6149796,-3.0188787,-3.4725526,-3.4718281,-3.2093365,-2.5309594,-1.9336952,-1.7690825,-1.3510824,-1.0552153,-1.052199,-0.98318022,-0.98982653,-0.92725374,-0.89217771,-0.9051511,-0.91819738,-0.86234722,-0.91519099,-0.80252338,-0.80274629,-0.76882587,-0.78428783,-0.79042892,-0.72358114,-0.78297318,-0.78068003,-0.79085588,-0.85326615,-0.74125113,-0.77933409,-0.70233159,-0.71153714,-0.74247103,-0.69220552,-0.63484789,-0.59808151,-0.61333384,-0.58723912,-0.53203994,-0.49572139,-0.40588505,-0.34980396,-0.35740357,-0.32411674,-0.26178226,-0.17947629,-0.13976545,-0.13263941,-0.13295584,-0.05660278,-0.15052303,-0.14630374,-0.11191882,-0.10641374,-0.091725725,-0.14876959,-0.0583201,0.023325215,0.025701942,-0.017815626,0.021778066,0.045963824,0.071513345,0.1257496,0.13923602,0.22190498,0.21647147,0.2400396,0.30714196,0.34481651,0.3920723,0.38746871,0.41143147,0.48277598,0.50340416,0.53129938,0.53984036,0.53199766,0.54607717,0.49610366,0.43390364,0.50084619,0.51183746,0.50636898,0.49967711,0.49743625,0.46858996,0.47821631,0.49491065,0.50410988,0.57737282,0.59694138,0.64201812,0.79198747,0.89268653,1.0280823,1.0577239,1.250142,1.4159181,1.5856616,1.6952209,1.6548564,1.6331182,1.6034032,1.47214,1.3519432,1.2615612,1.133736,0.93050616,0.71438896,0.60258613,0.4813045,0.47893427,0.52196854,0.49891135,0.54906624,0.46900006,0.54944019,0.55538336,0.55358734,0.552625,0.53061086,0.54697036,0.58116718,0.61516682,0.73412922,0.93498042,1.3255714,1.5815047,1.4273023,1.1863889,0.80318044,0.46175444,0.28143576,0.25878514,0.5158883,0.68911237,0.078797824
3376,-2.1172722,-3.2880467,-3.8060766,-4.1675842,-3.6754457,-3.0687759,-1.8946874,-1.2832199,-1.2700146,-0.68995117,-0.30004267,-0.25208931,-0.28594836,-0.26717429,-0.20544178,-0.29709107,-0.23842061,-0.22483879,-0.35511361,-0.21706343,-0.23631479,-0.283664,-0.28520691,-0.24423081,-0.27266489,-0.3183052,-0.310683,-0.27349311,-0.3056028,-0.36127446,-0.30178213,-0.29427143,-0.4283172,-0.38615484,-0.40728332,-0.37225457,-0.28941095,-0.4827721,-0.3750297,-0.33285488,-0.29894707,-0.19463734,-0.12466533,-0.084001209,-0.1115526,-0.051820759,0.026932083,0.027445663,0.086385752,0.066580978,0.21560944,0.22051723,0.18211181,0.10003832,0.11068791,0.22022069,0.11021328,0.13063119,0.15877594,0.10695299,0.17390355,0.23247075,0.14231015,0.074307271,0.1311729,0.10161077,0.22573644,0.22017211,0.17699604,0.28844977,0.27406909,0.2825853,0.34368282,0.27951805,0.46905613,0.42942236,0.44589596,0.46570504,0.51380999,0.53041477,0.52839193,0.57253853,0.55471095,0.6320059,0.5758778,0.57778723,0.6137107,0.51968359,0.51932826,0.58281073,0.69182157,0.82354234,0.97700989,1.0913157,1.1778452,1.3640384,1.5470134,1.838493,2.0747595,2.1711119,2.1288442,2.0691428,2.0453832,1.8518644,1.6481265,1.3696508,1.1020976,0.84461174,0.50442905,0.16854292,-0.097074099,-0.22335516,-0.21696289,-0.29891619,-0.3142886,-0.31682725,-0.3743736,-0.32736797,-0.29875891,-0.329524,-0.33782415,-0.42875402,-0.43956737,-0.50987399,-0.47459437,-0.39951917,-0.21688293,0.12635059,0.71646722,1.0252761,0.84263531,0.71438957,0.27443937,-0.072072991,-0.1427864,-0.45427313,-0.47159048,-0.22234313,-0.4924999,-1.6389158
4208,0.68521175,-0.91885933,-2.6648072,-3.7999193,-4.3061452,-3.8548985,-3.0632742,-1.9488192,-1.5029096,-1.1604966,-0.50353997,-0.48375487,-0.3864367,-0.37792578,-0.24623974,-0.22349573,-0.35687324,-0.39222674,-0.43476332,-0.30797,-0.30520007,-0.62087606,-0.50696321,-0.43199207,-0.55252832,-0.51393911,-0.49396423,-0.5209369,-0.51610538,-0.59714881,-0.66045671,-0.78904674,-0.82114598,-0.96018136,-0.73462953,-0.73093502,-0.86342989,-0.90166612,-0.80833926,-0.77681591,-0.61709795,-0.55477231,-0.58333409,-0.62309751,-0.46569217,-0.24872577,-0.17098557,-0.1295466,-0.044622353,-0.081795682,-0.14183917,-0.07299239,0.019340959,0.19039186,0.16718983,0.051575787,0.11365591,0.09399915,0.13555701,0.082819637,0.060825655,0.14779608,0.071959326,0.19145379,0.20911726,0.1994593,0.36832787,0.3903987,0.23521455,0.22793787,0.43178812,0.56881597,0.69949617,0.59559634,0.38940245,0.47545958,0.60629915,0.58007456,0.52779133,0.55591304,0.58333988,0.65058492,0.72069743,0.44460987,0.3699947,0.5011173,0.63226213,0.5286402,0.5344445,0.68157117,0.3393214,0.32751144,0.39920564,0.40570429,0.56252037,0.68377753,0.77620815,0.89338595,1.102865,1.0058943,1.2306146,1.5342137,1.7541919,2.0194106,1.999369,1.7065497,1.6405541,1.6093579,1.4763966,1.0297669,0.66287146,0.46085246,0.12307024,-0.074586636,-0.06909742,-0.11265499,-0.047692991,-0.083177206,-0.17187848,-0.069914409,0.0960022,-0.066319228,-0.12211322,-0.005808059,-0.41723704,-0.10525622,0.037258254,0.10629753,0.34217337,0.87284985,1.234233,1.1095592,1.1699149,1.1039219,0.97020585,0.59887736,0.76878844,0.7182647,-0.11575753,-2.35644
3125,0.53608564,-2.9111311,-4.0271348,-4.6269735,-4.1960121,-3.0879838,-1.6427053,-1.4591279,-0.9221887,-0.12062577,0.13419777,-0.065817429,-0.077481252,-0.001675446,-0.051486873,0.042555058,-0.17521536,-0.050987116,-0.29757437,-0.23634007,-0.14190799,-0.33073769,-0.18166738,-0.29579213,-0.41469557,-0.38039712,-0.47095471,-0.45600811,-0.72175251,-0.69005264,-0.68421114,-0.74102192,-0.8764018,-0.90393459,-0.76734694,-0.8479714,-0.82595399,-0.81099001,-0.84254689,-0.71534432,-0.67059462,-0.69244905,-0.56469568,-0.55976425,-0.42686728,-0.27178528,-0.21528458,-0.19972284,-0.049577523,-0.02282447,-0.13593861,-0.13280592,-0.054614532,-0.050183965,-0.011568373,0.068675186,0.19017669,0.1429048,0.13049807,0.26047522,0.22999873,0.17027791,0.25270014,0.3103527,0.26657983,0.34627201,0.39843663,0.48011782,0.51461171,0.56564683,0.6161308,0.53720764,0.54923336,0.59782621,0.64126913,0.57187786,0.63326637,0.45914789,0.40251242,0.43268281,0.40449511,0.37052159,0.40207346,0.37916991,0.32055253,0.34303781,0.28791805,0.32542697,0.26738631,0.25194232,0.29373603,0.28339682,0.22949104,0.17122515,0.21854177,0.20455565,0.31332913,0.4898634,0.77465908,0.92674071,1.1250781,1.2777144,1.443068,1.6070239,1.9260534,1.9549176,1.8746365,1.6417472,1.4413137,1.2379679,0.9130451,0.66028933,0.19251349,-0.14094783,-0.35304339,-0.37416973,-0.36632538,-0.3636827,-0.34974276,-0.34756195,-0.37897035,-0.39513169,-0.2764705,-0.34529249,-0.37865676,-0.35490737,-0.27416761,-0.26522191,-0.24648481,-0.11279668,0.13797683,0.62073063,0.88305065,0.81452459,1.0459382,1.012756,1.1526479,1.0258494,2.0526243,1.6511533
2537,-0.077009817,-2.4769498,-3.8502497,-4.3631187,-3.8875082,-3.1316062,-2.0797722,-1.6075772,-1.2725939,-0.5230793,-0.4912728,-0.45659661,-0.52879996,-0.46268371,-0.42797317,-0.44979956,-0.48255331,-0.47031228,-0.4346274,-0.56242785,-0.50992745,-0.58676129,-0.54541431,-0.61117579,-0.60760797,-0.62144733,-0.74162276,-0.85222165,-0.81834767,-0.89077342,-0.95721857,-0.91271954,-0.98976728,-1.0302752,-0.95435926,-1.0192658,-1.0910125,-1.0164613,-1.0172478,-0.82393165,-0.77457154,-0.66419283,-0.53009423,-0.47132107,-0.35629768,-0.34510761,-0.24553306,-0.32344907,-0.1852773,-0.091481767,-0.088072389,-0.015020352,0.03792828,0.092540991,0.038324505,0.067611071,0.15397611,0.11332145,0.14585438,0.15968655,0.24579283,0.26271509,0.36015996,0.40172748,0.37445522,0.42403638,0.45627298,0.54736464,0.59695739,0.61938608,0.65154045,0.66523871,0.71454831,0.59956152,0.62552288,0.65316475,0.65316558,0.67075984,0.61940545,0.66298201,0.62526442,0.62968981,0.51419993,0.65978256,0.51026911,0.50249957,0.44999026,0.48929953,0.43457609,0.47294602,0.48789884,0.4735717,0.49173172,0.45255498,0.47005485,0.49440247,0.64612713,0.72234919,0.92641605,1.0961393,1.2082099,1.2998255,1.4948169,1.6615255,1.6647534,1.5438189,1.3616661,1.1109726,1.0064413,0.9439158,0.74912484,0.56693078,0.077462847,-0.032019319,0.024595016,-0.025711006,-0.024978138,-0.006030023,-0.029809894,-0.034654438,-0.060538946,0.007633637,-0.10695902,-0.054899022,-0.057918845,-0.027190381,-0.024618688,0.053842808,0.072466804,0.29292237,0.90463753,1.1148282,1.1441748,1.2747407,1.3179103,1.0400337,1.0289118,1.311602,1.7515558,0.016732735
4993,0.80084324,-1.6095794,-3.2716899,-3.9712342,-4.4643199,-3.814696,-2.5017296,-1.561094,-1.426556,-0.88266454,-0.043265909,-0.2106622,-0.23196264,-0.16780228,-0.18413788,-0.1655479,-0.13149742,-0.11576395,-0.25293086,-0.29723161,-0.2873449,-0.36053237,-0.23910124,-0.29418459,-0.37931568,-0.44751644,-0.50437089,-0.4935368,-0.53789039,-0.60142798,-0.76519994,-0.70448912,-0.8199738,-0.8449853,-0.80469835,-0.83031211,-0.74086518,-0.76129005,-0.76263423,-0.74501067,-0.68097048,-0.60978575,-0.46349496,-0.45415755,-0.27970893,-0.33007382,-0.2872165,-0.22360139,-0.056164765,-0.068106303,-0.098305767,-0.018830503,-0.031592919,0.039022607,0.10412233,0.040553127,0.02419677,0.17550494,0.11360956,0.096286492,0.25975298,0.2133358,0.2178008,0.23709828,0.35837466,0.40629702,0.24274191,0.30935397,0.3012599,0.52014057,0.53792652,0.471752,0.49278696,0.51160383,0.50828597,0.48493058,0.41888992,0.49986078,0.41802197,0.34103974,0.4016052,0.42244125,0.41797998,0.37542928,0.36017389,0.33272637,0.38667844,0.38248323,0.29938121,0.36856707,0.29783854,0.33379023,0.25349002,0.29829229,0.35176472,0.33455485,0.51286527,0.68284144,0.92213949,0.94476738,1.1974927,1.3698631,1.7441568,2.0494392,1.9900472,1.8665666,1.8503322,1.635831,1.3332974,1.1807159,0.76310169,0.44805174,0.027370131,-0.30209453,-0.31388441,-0.38602594,-0.49178808,-0.38684051,-0.42433295,-0.42807077,-0.45668538,-0.26562168,-0.35522135,-0.3769686,-0.4012615,-0.45939332,-0.3162497,-0.17062761,-0.28323911,-0.14547968,0.33620341,0.74419309,0.8485959,0.92430965,1.192255,1.2950678,1.4394765,1.2856518,2.1185199,1.329099
3860,-0.6484595,-2.2130023,-2.7862881,-3.6869934,-4.1934421,-4.0436343,-2.7466026,-1.6105092,-1.30534,-0.76931332,-0.11886274,-0.10078667,-0.29382097,-0.21710582,-0.17745353,-0.18497886,-0.18636154,-0.31532214,-0.41494871,-0.35624361,-0.25116756,-0.13620992,-0.37514633,-0.40128708,-0.28243358,-0.26176609,-0.32489806,-0.41372068,-0.22696136,-0.23797143,-0.46411747,-0.37806039,-0.35328585,-0.33909171,-0.41076361,-0.63062821,-0.5260583,-0.40852822,-0.41633058,-0.33921577,-0.15058319,-0.2666219,-0.16696399,-0.075140374,-0.05030283,-0.1163602,0.10574695,0.15013698,0.20123504,0.26270188,0.050211976,0.023019646,0.012766858,0.002695246,-0.003167613,0.028697274,0.22100115,0.31001281,0.11819089,0.043348469,0.17641494,0.30242696,0.050266866,-0.035530038,0.15552925,0.215723,0.31090905,0.25320348,0.270055,0.33883951,0.32248935,0.30989369,0.45757877,0.43617859,0.53785243,0.52126896,0.73288884,0.90589767,0.49196306,0.69944316,0.45339236,0.4215164,0.34571092,0.3407646,0.49008522,0.5055734,0.6086202,0.61225553,0.40215461,0.35123968,0.38331568,0.50524851,0.33764015,0.30587161,0.47372444,0.59309161,0.66560955,0.97359385,1.0498637,1.045175,1.2923786,1.6381795,1.9868245,2.1038527,1.7092178,1.719911,1.7109053,1.4255414,1.4127531,0.92549731,0.47345461,0.38329808,0.25104662,-0.25620314,-0.46289311,-0.24528106,-0.184333,-0.45365483,-0.34671999,-0.33771083,-0.35409133,-0.14262323,-0.21329192,-0.37267622,-0.20359555,-0.087848538,-0.34564121,-0.32114861,0.039135039,1.1151161,2.0510394,1.9592932,1.7507911,1.2647082,-0.012453987,-1.1880938,-1.7966163,-1.5280497,-0.44294353,-1.3883266
1635,-2.2998921,-4.2653988,-4.6292178,-4.5089746,-3.5531244,-2.4481386,-1.4741481,-1.2643569,-0.52222785,0.013203223,-0.16219429,-0.13018866,-0.22519028,-0.094726684,-0.08132487,-0.17294999,-0.025040405,-0.14533964,-0.15562348,-0.1019714,-0.23461118,-0.21719499,-0.23812306,-0.24794553,-0.27076751,-0.33625791,-0.34416669,-0.41422432,-0.45969119,-0.50327419,-0.65487843,-0.55869139,-0.69424943,-0.73643951,-0.77433855,-0.85757274,-0.68279092,-0.74576107,-0.76381492,-0.63426654,-0.61017104,-0.48582841,-0.36966963,-0.32422933,-0.21509772,-0.12762185,-0.042610461,0.045987889,0.018069936,0.060287036,0.054111141,0.080427789,0.07417273,0.17618797,0.22112999,0.097686917,0.09215139,0.13305142,0.11171834,0.10076534,0.18137731,0.10808882,0.183825,0.19281566,0.28412899,0.16310347,0.32134199,0.29588516,0.30740485,0.39474684,0.45907745,0.43348342,0.52220976,0.53528661,0.5195851,0.4747072,0.49953854,0.53875645,0.56353224,0.55007617,0.51573772,0.31767707,0.38404396,0.32254435,0.32856491,0.38109424,0.29306034,0.26507113,0.27927059,0.23886657,0.26273179,0.20519651,0.27770358,0.23845866,0.37458475,0.57606137,0.73475869,0.94721406,1.0543243,1.206109,1.3329114,1.5721906,1.8248632,1.7643355,1.8173928,1.6764224,1.5405669,1.2825762,0.99820093,0.79607897,0.49517135,0.15391972,-0.15647547,-0.27197337,-0.19177213,-0.26490405,-0.30596376,-0.26270669,-0.33013112,-0.27896494,-0.18400168,-0.36559518,-0.21323519,-0.26123192,-0.24362149,-0.25672227,-0.3018527,-0.2780862,-0.15491244,0.152842,0.63367195,0.7815646,0.83509253,1.0122975,1.1406262,1.2092262,1.1985729,1.049055,1.5371773,0.31071623
748,2.1577288,0.39673089,-1.9815111,-3.4551366,-4.3008571,-4.6172035,-3.5310083,-2.1404023,-1.9812246,-1.2070262,-0.20367772,-0.13265618,-0.15016295,-0.19254526,-0.24355237,-0.2685805,-0.1427936,-0.16111666,-0.10073155,-0.1600626,-0.32272414,-0.27002421,-0.31723757,-0.33432291,-0.3550501,-0.4538299,-0.45054764,-0.46139367,-0.56694043,-0.53598716,-0.56546977,-0.70177824,-0.71778689,-0.79040775,-0.91131262,-0.96650087,-0.89374613,-1.0320212,-1.012429,-0.92298403,-0.85882558,-0.85610098,-0.80859288,-0.67481094,-0.62178543,-0.5050487,-0.45482546,-0.25911743,-0.27346203,-0.19348985,-0.084241029,-0.098423457,-0.045925138,0.059078809,-0.012008155,0.009632893,0.053464376,0.042165347,0.11454849,0.10316544,0.27047471,0.12587318,0.19486151,0.26691205,0.17531434,0.36750939,0.27769528,0.4144198,0.44984231,0.49054528,0.57011193,0.58284074,0.50821744,0.4767192,0.6165181,0.58398944,0.62884862,0.45576675,0.54251502,0.76537252,0.71649316,0.65073451,0.5695936,0.51169814,0.35052216,0.52108907,0.50968068,0.35964472,0.43479942,0.35495474,0.37654045,0.27464118,0.271352,0.32597566,0.27610449,0.22020605,0.18108586,0.19524037,0.1598779,0.29630616,0.27367175,0.33867541,0.47776329,0.80513396,0.93973538,1.0245347,1.2898742,1.6337582,1.572484,1.4287404,1.1622882,0.76589955,0.68083765,0.86812717,0.76988921,0.4816825,0.085317454,-0.38391247,-0.28897243,-0.27755603,-0.29303623,-0.21208956,-0.30914407,-0.2465774,-0.3005186,-0.16791796,-0.20740393,-0.10609737,-0.085829932,-0.050318679,0.097883259,0.56860212,0.87026192,1.0257893,1.7667553,1.6743742,1.8043231,1.2596292,1.3703362,1.9350045
2974,-0.96685277,-2.1712318,-3.1701485,-3.7076264,-4.1564508,-3.8237932,-3.356167,-2.0452361,-0.96672935,-0.7841309,-0.31874765,0.058595226,0.055559805,-0.002562895,0.077406506,0.16587207,0.12040665,-0.021301551,0.077224602,0.013968888,0.09418462,0.15183033,0.035025585,-0.054637065,0.048875833,0.08949468,0.069534346,0.083352272,0.073965654,0.14442937,0.16920234,0.18298594,0.074173053,0.070470979,0.14650821,0.1401227,0.046812246,0.15077182,0.19170731,0.15562797,0.25259034,0.26780718,0.21507818,0.25026037,0.3000951,0.20419539,0.29783648,0.25099156,0.37511249,0.3199748,0.26137742,0.40597946,0.34987193,0.36665976,0.28803574,0.26678785,0.24843435,0.16515727,0.15705704,0.141233,0.14431502,0.12545254,0.22349863,0.16032571,0.1681473,0.19173422,0.24299504,0.24785028,0.23096431,0.24991614,0.36004171,0.25450188,0.25843268,0.48243213,0.51146782,0.51718342,0.54821065,0.49338181,0.45953516,0.61342193,0.54237818,0.56526859,0.50306825,0.49085996,0.52053892,0.44822229,0.46697976,0.47298094,0.44653336,0.41619135,0.46702144,0.45545026,0.49199346,0.67360052,0.76351957,1.0092614,1.1802401,1.4240544,1.7213961,1.8895357,1.9655337,1.9385317,1.7748586,1.5010149,1.3612057,1.0852483,0.89876594,0.58983018,0.19492932,-0.021012463,-0.27083224,-0.3408923,-0.25440005,-0.28355434,-0.27005574,-0.27155248,-0.30950865,-0.31211845,-0.27360614,-0.35174554,-0.33719915,-0.33049045,-0.32669278,-0.47775826,-0.46721165,-0.34657395,-0.29985723,0.090222587,0.64585736,0.97040531,0.58086467,0.082568845,-0.93594809,-1.604829,-1.7797928,-1.755157,-1.3704029,-0.87208277,-1.2812102,-2.4952844
3786,1.5319341,0.92006083,-0.49019514,-2.0132361,-2.8349715,-3.4859333,-3.2619857,-2.3102226,-1.7047485,-1.678492,-1.0249631,-0.46375571,-0.4059883,-0.47395269,-0.5444704,-0.54019877,-0.38263593,-0.52568892,-0.52663255,-0.48389023,-0.52939911,-0.60754668,-0.53614193,-0.55977808,-0.63062482,-0.64403399,-0.71965775,-0.74621216,-0.80129161,-0.83125147,-0.93636305,-0.99338465,-1.0413056,-0.99045376,-1.0151654,-1.1421224,-1.0958733,-1.1345867,-1.2256366,-1.2343389,-1.032637,-1.0616449,-0.96872443,-0.89106257,-0.89706557,-0.69918268,-0.56970454,-0.48672667,-0.43495531,-0.44529865,-0.33163052,-0.40143314,-0.25576798,-0.29564955,-0.1822898,-0.26271806,-0.20728578,-0.14138264,-0.2307739,-0.2701736,-0.11682102,-0.066774103,-0.085408819,-0.075672403,-0.10625849,-0.056186868,-0.056800564,0.032967904,0.07974603,0.066111301,0.11430137,0.1444909,0.20035268,0.19316619,0.21511008,0.19237102,0.21973675,0.30044423,0.35348397,0.37657857,0.28097237,0.29525002,0.32323472,0.30642285,0.19566208,0.33184921,0.31566277,0.22959631,0.27106936,0.17288257,0.23228515,0.27666619,0.27941326,0.25461311,0.25710105,0.23943788,0.25534277,0.31346393,0.32302693,0.5482447,0.66351336,0.93341219,1.11337,1.2649505,1.3222861,1.54133,1.9338962,2.1014058,2.1077607,1.8906618,1.7563078,1.4807247,1.2897951,1.1097743,0.79368808,0.39240792,0.21936851,0.15716344,0.18283827,0.15403899,0.18804016,0.2415642,0.16335092,0.16571961,0.21379007,0.27231647,0.29743529,0.29761111,0.3461292,0.37220553,0.5237021,1.0161069,1.2796179,1.3614617,1.7812398,1.9776585,2.2260395,1.6367639,1.8501208,1.9345383
4645,-1.7002894,-3.8389927,-4.5284767,-4.1968684,-3.1846655,-2.0536575,-1.6164316,-1.3831424,-0.5359071,-0.33074274,-0.37693223,-0.35578488,-0.31059767,-0.38334923,-0.31818745,-0.36066253,-0.3814587,-0.36499402,-0.38037969,-0.31483777,-0.44136399,-0.50551733,-0.58192209,-0.55467294,-0.50620338,-0.50420715,-0.54866528,-0.57191605,-0.66006293,-0.60484596,-0.74215217,-0.77511345,-0.74796001,-0.79365191,-0.87220978,-0.85350175,-0.79695827,-0.75996274,-0.63784044,-0.6264377,-0.5503617,-0.44476087,-0.45168288,-0.29732918,-0.25718296,-0.22911272,-0.10760868,-0.046526592,0.015949482,0.011936989,0.09444736,0.014338616,-0.01974309,0.05477752,-0.043958859,0.048156339,0.022931202,0.021431935,-0.025634053,0.007793237,0.051447197,0.074488585,0.14761344,0.13084147,0.11408252,0.2328766,0.16353912,0.25683411,0.31895932,0.3876168,0.43900765,0.5563388,0.51845235,0.58254345,0.55763939,0.57295047,0.56347504,0.61003519,0.55455609,0.53431046,0.56263522,0.52666746,0.47204969,0.44699302,0.48903872,0.52644748,0.42539331,0.44430413,0.39660349,0.49823974,0.42155601,0.37817853,0.42896095,0.3250108,0.47635916,0.52906564,0.54497735,0.67610931,0.8326608,1.006626,1.1787699,1.4149335,1.5674313,1.711513,1.804413,1.7865763,1.6823784,1.4685492,1.2824369,1.0830178,0.87193056,0.55858974,0.28633113,0.036945082,-0.060181627,-0.13462345,-0.14509453,-0.20521624,-0.21769917,-0.14487661,-0.091322764,-0.17722816,-0.20718163,-0.16172733,-0.14068261,-0.15178958,-0.22725971,-0.13267404,0.13284765,0.56583704,1.350439,1.4641103,1.6781195,2.1262269,2.0749803,1.311668,0.34590003,-0.065680588,-0.045260785,-1.0672682
4488,-0.62848028,-3.0105571,-4.0467356,-4.6843428,-3.7746307,-2.6648512,-2.0791405,-1.7066719,-0.92919216,-0.46889012,-0.4402764,-0.41038569,-0.46742395,-0.38736048,-0.43163825,-0.38235131,-0.42891926,-0.43453234,-0.50397792,-0.49983192,-0.49780341,-0.47007389,-0.50915006,-0.55137342,-0.58794463,-0.64913876,-0.5841174,-0.67997142,-0.72063935,-0.80746233,-0.79994022,-0.85255332,-0.86126563,-0.91203804,-0.8628403,-0.95871072,-0.90827844,-0.73595729,-0.71675668,-0.74584673,-0.633308,-0.50883297,-0.41819359,-0.36203244,-0.27291338,-0.21065474,-0.15956367,-0.12683878,-0.074154126,0.037524348,-0.020424366,0.013076579,0.1162839,0.10975371,0.068043894,0.10833358,0.12370485,0.12351664,0.20645811,0.23331648,0.28656835,0.24182624,0.2666147,0.27933576,0.33105031,0.35858782,0.355697,0.33093735,0.46377471,0.47092692,0.50537536,0.54074348,0.48171056,0.5730714,0.61185587,0.62117259,0.57422951,0.57038538,0.63697772,0.62458392,0.57118672,0.51338604,0.49958606,0.50934886,0.54266998,0.47678066,0.56338908,0.47125221,0.4758202,0.44158001,0.39046657,0.40416921,0.39652863,0.38656597,0.42579573,0.40148977,0.41101472,0.49445707,0.73174582,0.92950597,1.2401156,1.3734294,1.4102357,1.5375677,1.9109014,1.8599984,1.8109827,1.7558269,1.6014278,1.3305311,1.1528013,0.86670668,0.47000433,0.089171861,-0.094756493,-0.090953974,-0.15467848,-0.11332701,-0.082455144,-0.11717006,-0.031082043,-0.09814474,-0.060501132,-0.1434813,-0.07168949,-0.031672667,-0.048326289,-0.057654188,0.004890401,0.28568387,0.90897127,1.4461974,1.3486001,1.3081426,1.0224761,0.44607224,0.12894585,0.3405847,1.234763,-0.41234366
3818,-0.46790942,-2.2131483,-3.5158313,-4.7086754,-4.959217,-4.0613342,-2.7768986,-1.6020749,-1.5563484,-0.78631835,-0.2035959,-0.17197855,-0.17414713,-0.14905519,-0.17353102,-0.24255182,-0.1682294,-0.18539545,-0.24886677,-0.27527381,-0.27948404,-0.24786468,-0.25079788,-0.25846451,-0.36373908,-0.24200761,-0.37312647,-0.41952481,-0.29521109,-0.46762241,-0.46646796,-0.54985007,-0.59974453,-0.53005653,-0.6069059,-0.52559022,-0.58869912,-0.45026191,-0.44688093,-0.46816068,-0.30751825,-0.24436208,-0.044055755,-0.089903062,0.094991261,0.14024111,0.10120383,0.12276779,0.1208416,0.15203146,0.1424042,0.14927717,0.21984189,0.097653223,0.035954014,0.21223919,0.15996313,0.17466221,0.26022553,0.25387638,0.24565726,0.26117491,0.28471283,0.34839683,0.29286115,0.36312263,0.48312999,0.39817266,0.4610135,0.55578392,0.58073057,0.60084583,0.69446741,0.69857131,0.61878301,0.67946331,0.64040644,0.62861108,0.56004646,0.53811668,0.59315073,0.486636,0.47445984,0.44416009,0.45854438,0.40180402,0.43195118,0.45193315,0.27750805,0.36280791,0.38674994,0.34112143,0.29999422,0.2729533,0.36748087,0.3208933,0.30367198,0.39774672,0.39525883,0.41597818,0.41462322,0.60796073,0.68490583,0.94653296,1.1936053,1.2014514,1.0524219,0.69659553,0.48486,0.50846285,0.46861832,0.54192534,0.42284466,0.14811131,-0.086241037,-0.23824395,-0.12312559,-0.12730354,-0.27047829,-0.21633241,-0.32219497,-0.29518078,-0.16823029,-0.2780998,-0.20633923,-0.10030615,-0.18655624,-0.073800529,-0.020982005,0.28663779,1.2377634,1.7597907,1.7471017,2.0586176,2.3707554,1.6631432,0.82305187,0.27085141,0.086819552,-1.4644027
4015,-1.4112485,-2.865195,-3.4394811,-3.8059081,-3.736798,-3.3095419,-2.270266,-1.5891114,-1.4318275,-0.81402946,-0.41550284,-0.50583335,-0.476796,-0.4769179,-0.34513333,-0.40892303,-0.41805387,-0.69353665,-0.56965444,-0.28465274,-0.33844694,-0.35003213,-0.45088825,-0.58919265,-0.49636291,-0.48678035,-0.56402664,-0.49475695,-0.40187166,-0.5338032,-0.46461378,-0.41305868,-0.4639148,-0.53502134,-0.36910453,-0.4497064,-0.5588567,-0.291187,-0.37437183,-0.4780159,-0.25282392,-0.069214033,0.021158084,-0.051457062,-0.14546249,-0.033381986,-0.10004822,-0.098600812,-0.11951023,0.20525315,0.22191851,0.13645978,0.17090639,0.149477,-0.097847691,-0.081760417,0.01097748,0.014673135,0.087632211,0.070311216,0.1363942,0.2189635,-0.004355914,0.11195193,0.24320897,0.32586634,0.19193091,0.24808479,0.3184105,0.29541611,0.51642844,0.50927045,0.2723758,0.39550526,0.60484464,0.56098092,0.7441482,0.74901134,0.6326162,0.63205702,0.64185039,0.80555791,0.65939519,0.54086915,0.68554549,0.58604971,0.49560785,0.57064787,0.52675398,0.59082713,0.53713969,0.49281715,0.54029416,0.52852907,0.49522332,0.70092837,0.92708053,0.93994559,1.2919182,1.4423168,1.5245928,1.8638125,1.9477086,1.8960413,1.7512888,1.9413541,1.8355944,1.5195697,1.4127726,1.1807199,1.0031732,0.69706162,0.36333819,0.035827313,-0.15071299,-0.066944996,-0.12680155,-0.15196914,-0.26705167,-0.28596532,-0.054303204,-0.072821409,-0.14153215,-0.26813329,-0.16185385,-0.12664821,-0.22166385,-0.16681465,0.068103115,0.72608864,1.5139671,1.7734849,1.2179936,0.24287664,-0.68566931,-1.4032702,-1.5747414,-1.2078138,-0.29396138,-0.45534019
2219,-1.7815576,-3.5969595,-4.3982586,-4.7983383,-3.8173341,-2.6115947,-1.9421734,-1.4060527,-0.28248043,-0.19806418,-0.24561086,-0.30028801,-0.19286035,-0.16265867,-0.26062115,-0.25693275,-0.23952833,-0.25705344,-0.27080732,-0.29379771,-0.26119003,-0.32961039,-0.4227821,-0.40529332,-0.35714766,-0.53674421,-0.50790028,-0.59163284,-0.63078556,-0.73407029,-0.7116733,-0.77299589,-0.93904818,-0.90353316,-0.8636933,-0.84288473,-0.93228398,-0.81153525,-0.69695692,-0.71007333,-0.61714145,-0.42558617,-0.29907009,-0.26888539,-0.071820173,-0.13304778,-0.058767923,0.036774545,0.019218742,-0.003241279,0.017140646,0.065205488,0.013588977,0.054474108,0.028980269,0.05008853,0.17116938,0.13163758,0.15144703,0.21812494,0.20141013,0.11857623,0.24767975,0.35316368,0.31951837,0.4430704,0.49496765,0.67594791,0.63891658,0.67889963,0.70696533,0.79795254,0.76979411,0.81546835,0.76902637,0.77866711,0.7946292,0.68883864,0.7065186,0.65468781,0.644051,0.68376859,0.59822724,0.61475636,0.52022617,0.56601507,0.50123273,0.47814842,0.48976823,0.52668126,0.38456481,0.46282114,0.44734133,0.33405867,0.36685457,0.33433941,0.32377619,0.45156517,0.40444054,0.39912844,0.37802666,0.41124989,0.45464935,0.53511472,0.68120424,0.99350894,1.2142614,1.2869107,1.033871,0.641782,0.47224561,0.49387803,0.59089484,0.4472873,0.30422878,-0.002965926,-0.17522618,-0.23026698,-0.13583276,-0.18916967,-0.28226805,-0.19641955,-0.19608698,-0.1798803,-0.21413579,-0.24361952,-0.1624828,-0.25732151,-0.1204582,0.042403901,0.45632151,1.1943561,1.5457504,1.7622156,2.2475232,2.3251409,1.7005783,0.75229728,0.65872315,-0.030236419
3889,-1.6256797,-3.2675569,-3.1763897,-3.2485173,-2.6982333,-2.0868448,-1.6078444,-1.6091729,-1.1096877,-0.91945138,-0.94909935,-0.89347752,-0.9261806,-0.86464324,-0.84098148,-0.83641937,-0.86440393,-0.87452742,-0.84568974,-0.86723967,-0.91253157,-0.8456605,-0.86838632,-0.82165255,-0.90641081,-0.87978618,-0.89673887,-0.94797349,-0.91959274,-0.97456772,-0.9410453,-0.92378011,-0.99610959,-0.9470758,-0.93027752,-0.88517599,-0.87338946,-0.86854288,-0.89633071,-0.82041285,-0.73756517,-0.70587489,-0.63806236,-0.57529123,-0.5455292,-0.48796592,-0.44131712,-0.42453482,-0.36721861,-0.37169424,-0.30881426,-0.30773186,-0.27887734,-0.28740581,-0.27577056,-0.17170206,-0.19667376,-0.15979943,-0.11948318,-0.11631784,-0.083542813,-0.11346473,-0.033276639,0.012558621,0.042096815,0.050510203,0.10206934,0.13990145,0.15631199,0.20008522,0.24051677,0.28081478,0.25827062,0.29994319,0.27253069,0.26073116,0.34288426,0.31494845,0.31645792,0.35992911,0.32718687,0.34653055,0.36147662,0.36411655,0.36024677,0.37038246,0.36092029,0.36817164,0.40520669,0.43589195,0.41276317,0.46003473,0.43738573,0.45044437,0.47417329,0.51557915,0.65761737,0.73663365,0.85890325,0.96741501,1.0876598,1.1807355,1.3294175,1.4545342,1.43441,1.4363405,1.417421,1.3120946,1.1755254,1.1060056,0.91718214,0.84256822,0.6873084,0.55540126,0.53865188,0.5562732,0.54731395,0.57749514,0.60318317,0.59231711,0.61222994,0.63137721,0.62905565,0.6848601,0.72456019,0.69293164,0.76418495,0.80761343,0.83347053,0.99315838,1.2985241,1.5171803,1.6540253,1.8063903,1.7997416,1.6511834,1.5392116,1.426848,1.8674728,1.3078963
289,0.32236803,-2.0649279,-3.3993031,-4.3270462,-4.2793801,-3.4712398,-2.1218506,-1.6570115,-1.3110937,-0.31812099,-0.11887602,-0.16777775,-0.25657978,-0.29004792,-0.17992916,-0.16942634,-0.078029336,-0.19521281,-0.31572091,-0.36297303,-0.27482123,-0.27974729,-0.30901143,-0.28871098,-0.47855699,-0.43118199,-0.38662793,-0.39951321,-0.50670414,-0.61420001,-0.46309316,-0.7213478,-0.83271085,-0.73196235,-0.79323901,-0.8389552,-0.89293,-0.73224402,-0.73286949,-0.67432558,-0.5930407,-0.55729467,-0.4588021,-0.36103347,-0.28607575,-0.20413561,-0.18629903,-0.16310028,-0.021530698,0.11146401,0.063193244,0.1505485,0.13454126,0.18568055,0.1358642,0.26332017,0.1970192,0.2124177,0.27125509,0.38468854,0.2512441,0.29876799,0.33219405,0.30400174,0.42360955,0.39622631,0.42311135,0.53492042,0.48356918,0.54055572,0.65945072,0.63576324,0.60291403,0.6318129,0.64410852,0.65036257,0.5843038,0.5780929,0.60262008,0.53632714,0.65173637,0.52906878,0.38302796,0.45329998,0.35809493,0.4927885,0.44163512,0.24977186,0.44751971,0.27381639,0.30755486,0.23889417,0.25907271,0.20687535,0.17972474,0.44128468,0.61127863,0.8030587,0.956232,1.1983861,1.2017328,1.4292802,1.8114309,2.0621052,1.9677571,1.9417676,1.8002941,1.5848297,1.3623907,1.1325666,0.73121426,0.34410206,-0.15705422,-0.50119413,-0.50532925,-0.51761045,-0.58846597,-0.5288476,-0.5586376,-0.55094916,-0.54923524,-0.44412522,-0.55428384,-0.66784556,-0.53094261,-0.63599578,-0.48417717,-0.53613042,-0.49720662,-0.30780212,0.071750521,0.39273004,0.40758701,0.65006515,0.93740949,0.88732447,1.1497951,1.120901,2.1013943,1.2965781
233,-0.7641406,-1.8974789,-2.8300093,-3.5332008,-4.1598128,-4.0183158,-3.1068781,-1.7838823,-1.2877004,-0.85336829,-0.18948198,0.2052823,0.24312873,0.22092282,0.26055637,0.1676456,0.27540046,0.14894915,0.17610234,0.22807863,0.28737908,0.17993364,0.22396977,0.069923854,0.1274612,0.10278319,0.062303747,0.085855965,-0.007914012,-0.04546235,0.020061503,-0.043450319,0.020597474,-0.006551808,-0.083873476,-0.075322529,-0.16608346,-0.10438654,-0.074555141,-0.11402526,-0.099663068,-0.025895125,0.010057837,-0.001327416,0.083091883,0.21219117,0.29449911,0.1894531,0.23110634,0.27373602,0.32791235,0.28790463,0.2418977,0.32651642,0.21491476,0.14967736,0.21163706,0.22275877,0.18954599,0.082787087,0.070418532,0.21521731,0.19190027,0.17353233,0.1949892,0.17264411,0.093755439,0.28758792,0.23663926,0.29413677,0.41760215,0.3755503,0.3819463,0.40426554,0.45204016,0.61593432,0.48104412,0.51165694,0.52885013,0.49564043,0.44138008,0.41954818,0.49636436,0.57451645,0.49529602,0.44472537,0.48213712,0.39454398,0.29440877,0.32672898,0.33152189,0.37160296,0.43165134,0.58037587,0.77662405,0.94053596,1.0529473,1.1337927,1.3275126,1.5722014,1.8584187,2.0404268,1.9174552,1.8795531,1.7452777,1.5415994,1.4033551,0.99998155,0.79933609,0.52674305,0.061215064,-0.27916907,-0.38193788,-0.41662318,-0.45474031,-0.36774285,-0.50853942,-0.48059308,-0.56708872,-0.53694555,-0.60792278,-0.56342158,-0.56758917,-0.54930014,-0.51046048,-0.58525952,-0.56467456,-0.4069859,0.33138496,1.1456174,1.1664623,0.73163553,0.20476367,-0.8514834,-1.6389058,-2.0213054,-1.7605835,-1.022869,-1.1751381,-2.4009569
661,0.16257617,-1.8096106,-3.0593682,-4.2086964,-4.3313269,-3.9309828,-3.1260764,-1.9128947,-1.4099351,-1.1786077,-0.47360515,-0.20501299,-0.17663567,-0.10443505,-0.082262919,-0.085379033,-0.058988996,-0.11531307,-0.11091052,-0.15516661,-0.10399316,-0.15217356,-0.16090066,-0.11087041,-0.22808561,-0.22706093,-0.22924669,-0.37365156,-0.3049433,-0.36839392,-0.4082752,-0.45873525,-0.50401896,-0.60637617,-0.62910365,-0.60104351,-0.59003573,-0.5987863,-0.56054398,-0.5964918,-0.51655608,-0.43994799,-0.38445758,-0.3459316,-0.23504461,-0.20315187,-0.14674387,-0.1261976,0.064126542,0.07028107,0.005482305,0.10231018,0.18002034,0.095914555,0.094473373,0.17096289,0.16225222,0.093655367,0.067816346,0.19727887,0.17997334,0.1183613,0.087994737,0.19717439,0.11184583,0.20717322,0.18436282,0.24471548,0.26785766,0.16185644,0.35499056,0.42012623,0.4016875,0.44376718,0.54288761,0.57002308,0.54595581,0.63103239,0.65340011,0.60057873,0.58553802,0.61777295,0.65262267,0.71011668,0.64056114,0.54188077,0.5433947,0.56630367,0.50707951,0.46900203,0.49391998,0.47633021,0.61084364,0.76125451,0.85229673,1.0696618,1.0735776,1.2749509,1.4398636,1.6446953,1.7789943,1.7076069,1.7466825,1.5952584,1.4384002,1.3167657,1.1220969,0.85908698,0.5563895,0.22465525,-0.12395882,-0.20097584,-0.24214776,-0.27919041,-0.26660412,-0.39993998,-0.46353349,-0.44987231,-0.37478256,-0.34001891,-0.40934853,-0.37633314,-0.37688436,-0.326127,-0.31357559,-0.41028677,-0.069983882,0.33705764,0.87876343,0.95583267,0.83983001,0.98773617,0.98598736,0.99520546,0.94457734,0.69600955,0.93440257,0.55655153,-0.57525987,-2.6376778
1308,-0.95540855,-2.0786546,-2.8219654,-3.2984291,-3.8223197,-4.0493594,-3.574151,-2.5468004,-1.5911338,-1.3148259,-0.87208818,-0.56673981,-0.53244988,-0.37803992,-0.4030747,-0.3877206,-0.39802229,-0.39415681,-0.41770035,-0.38632558,-0.51701017,-0.37731677,-0.26947031,-0.29075731,-0.29339747,-0.32278623,-0.29601413,-0.15337494,-0.30545743,-0.26213992,-0.2374979,-0.27692438,-0.19348322,-0.20443301,-0.23432997,-0.2599105,-0.29032848,-0.21765217,-0.18082949,-0.24734056,-0.24101404,-0.13896839,-0.22747653,-0.11499865,-0.097713511,-0.13676905,0.011083047,0.029364835,0.03807726,0.10133057,0.11594006,0.14912229,0.17422883,0.14709733,0.16633186,0.096271439,0.10871964,0.001311266,-0.050393764,0.11211176,0.13330904,0.12551285,-0.02836814,-0.090132978,0.037724602,0.15787839,0.081062086,0.11148624,0.088839811,-0.023559054,-0.071470499,0.16495327,0.40565421,0.41364026,0.4605837,0.4654124,0.47367034,0.49541306,0.54585684,0.57405896,0.59345911,0.46990771,0.48503724,0.5876189,0.55349948,0.53209573,0.50161219,0.43610969,0.40454246,0.43582912,0.46521478,0.67889165,0.82390395,0.94497167,1.0285667,1.1596834,1.270854,1.4504343,1.7486691,1.9957252,2.1054329,2.0183143,1.9302619,1.7549585,1.4979145,1.4823514,1.2475923,1.0200156,0.89730766,0.46381459,0.1666647,0.036208912,0.045220331,0.08197678,0.053000317,0.009129229,-0.026266198,-0.012407243,-0.098393726,-0.026854104,0.028286311,-0.069388667,-0.036038228,-0.086334026,0.078345911,0.13728625,0.1344329,0.32559823,0.87063163,1.575629,1.5404698,1.0677724,0.36263347,-0.39130527,-0.9935411,-1.3537329,-1.1355375,-0.72792039,-0.21271115,-0.87280719
4335,-0.82254374,-4.020453,-4.4880086,-4.4285545,-3.6136757,-2.2418683,-1.5698896,-1.4754315,-0.70134266,-0.17155819,-0.36120861,-0.24006607,-0.28692307,-0.22816833,-0.25404026,-0.3001039,-0.2883705,-0.20209872,-0.24363484,-0.33649263,-0.30524063,-0.39130972,-0.44007511,-0.45214184,-0.52162266,-0.55006595,-0.52509446,-0.63953699,-0.71540437,-0.74714334,-0.82872329,-0.79805023,-0.86341409,-0.9071918,-0.91692493,-0.83856022,-0.83533672,-0.95298157,-0.80537755,-0.80810767,-0.69156647,-0.62843463,-0.56747399,-0.47455424,-0.41796946,-0.36094565,-0.22270344,-0.25088533,-0.17675325,-0.21771003,-0.036347505,-0.018224989,-0.076277393,0.013870014,-0.005431746,0.086016326,0.064809271,0.10890951,0.071947179,0.055455255,0.10889668,0.16695168,0.19461218,0.26412527,0.2033079,0.40412795,0.41116144,0.4304235,0.540479,0.59720972,0.62991409,0.61047632,0.64773911,0.65055582,0.56384414,0.57666691,0.60694855,0.6130248,0.61889707,0.46393236,0.54662765,0.49124165,0.44897207,0.48661234,0.46501268,0.50132034,0.45189217,0.49854886,0.46896181,0.44928972,0.42976085,0.44250913,0.41934858,0.38414461,0.40469694,0.38887761,0.41465798,0.46284514,0.47237335,0.64331031,0.97745408,1.1361388,1.320667,1.4303175,1.7440393,1.8936514,1.7671187,1.7954448,1.6443389,1.4820584,1.2518771,0.9528857,0.67066755,0.28825844,-0.041404077,-0.15861122,-0.17975619,-0.17605886,-0.16059596,-0.16458113,-0.10036788,-0.11537999,-0.14686474,-0.11143855,-0.13750072,-0.16452116,-0.068306473,-0.046612251,-0.08269734,0.044043105,0.3841122,1.1918612,1.4947759,1.329556,1.3418142,0.86523812,0.54681437,0.2598672,1.0097642,0.31864038
2070,1.5031742,1.0465351,-0.49245401,-2.0666114,-2.9682377,-3.6256434,-3.1762161,-2.2061565,-1.7470965,-1.7756739,-0.81022457,-0.45290919,-0.56764069,-0.58194366,-0.61616907,-0.5574622,-0.62382753,-0.52370636,-0.62347366,-0.59427492,-0.64219538,-0.69533424,-0.69607111,-0.706187,-0.77970195,-0.724967,-0.82321052,-0.86897843,-0.90217283,-0.9521252,-0.86339608,-1.07912,-1.1086411,-1.1856458,-1.0959456,-1.0940669,-1.1697912,-1.0751616,-1.1781227,-1.0912237,-1.0516182,-1.0456194,-0.98582076,-0.91950099,-0.67109606,-0.69926239,-0.66131753,-0.48375306,-0.39082994,-0.33199967,-0.36141947,-0.3410624,-0.20611244,-0.24543175,-0.23836053,-0.20249298,-0.14103965,-0.11028447,-0.067578718,-0.032762839,0.026284392,-0.066577145,0.013071892,0.051869012,0.043708444,0.17238429,0.19735691,0.18094603,0.20386246,0.32923533,0.27657876,0.39265285,0.39297378,0.49348471,0.47360941,0.38296407,0.50805818,0.57022438,0.59534987,0.60662971,0.47115865,0.50561772,0.52490807,0.49583663,0.60615658,0.5297019,0.55745106,0.36187361,0.4816465,0.5064088,0.38705926,0.53309236,0.40503724,0.46827175,0.32766763,0.3293307,0.44121309,0.41574085,0.3519175,0.4959698,0.6192128,0.72471376,1.0242894,1.2549353,1.3218173,1.4230235,1.6929212,2.0486566,2.1028111,2.1660362,2.1050452,1.8288285,1.6696194,1.4819185,1.0969455,0.6398788,0.092971068,-0.050967618,-0.036267248,0.044066082,0.017422975,-0.039259563,-0.007883214,0.086841968,0.091749331,0.014077416,-0.028904508,0.11576643,0.080666959,0.15701879,0.22733821,0.096194666,0.42588383,0.87720578,0.97916336,1.3867101,1.6714058,1.8540815,1.7504961,1.3322751
